Sample_Index,IR_Value,Timestamp_ms
0,22388,0.00
1,22380,19.97
2,22380,39.95
3,22372,59.92
4,22368,79.89
5,22376,99.87
6,22400,119.84
7,22448,139.81
8,22492,159.79
9,22532,179.76
10,22556,199.73
11,22552,219.71
12,22528,239.68
13,22500,259.65
14,22476,279.63
15,22496,299.60
16,22532,319.57
17,22564,339.55
18,22580,359.52
19,22604,379.49
20,22628,399.47
21,22652,419.44
22,22668,439.41
23,22672,459.39
24,22676,479.36
25,22680,499.33
26,22680,519.31
27,22664,539.28
28,22636,559.25
29,22624,579.23
30,22648,599.20
31,22664,619.17
32,22668,639.15
33,22672,659.12
34,22676,679.09
35,22688,699.07
36,22708,719.04
37,22728,739.01
38,22748,758.98
39,22768,778.96
40,22740,798.93
41,22688,818.90
42,22628,838.88
43,22572,858.85
44,22536,878.82
45,22524,898.80
46,22528,918.77
47,22540,938.74
48,22548,958.72
49,22556,978.69
50,22572,998.66
51,22592,1018.64
52,22616,1038.61
53,22644,1058.58
54,22680,1078.56
55,22712,1098.53
56,22728,1118.50
57,22740,1138.48
58,22752,1158.45
59,22776,1178.42
60,22804,1198.40
61,22852,1218.37
62,22904,1238.34
63,22960,1258.32
64,23024,1278.29
65,23084,1298.26
66,23132,1318.24
67,23168,1338.21
68,23196,1358.18
69,23208,1378.16
70,23208,1398.13
71,23184,1418.10
72,23160,1438.08
73,23152,1458.05
74,23156,1478.02
75,23168,1498.00
76,23184,1517.97
77,23196,1537.94
78,23204,1557.92
79,23212,1577.89
80,23220,1597.86
81,23220,1617.84
82,23200,1637.81
83,23140,1657.78
84,23064,1677.76
85,22984,1697.73
86,22928,1717.70
87,22884,1737.68
88,22860,1757.65
89,22848,1777.62
90,22844,1797.60
91,22848,1817.57
92,22852,1837.54
93,22868,1857.52
94,22888,1877.49
95,22912,1897.46
96,22924,1917.44
97,22932,1937.41
98,22932,1957.38
99,22916,1977.36
100,22900,1997.33
101,22900,2017.30
102,22908,2037.28
103,22920,2057.25
104,22940,2077.22
105,22960,2097.20
106,22980,2117.17
107,23000,2137.14
108,23020,2157.12
109,23044,2177.09
110,23060,2197.06
111,23080,2217.03
112,23096,2237.01
113,23116,2256.98
114,23128,2276.95
115,23140,2296.93
116,23152,2316.90
117,23148,2336.87
118,23120,2356.85
119,23060,2376.82
120,22992,2396.79
121,22920,2416.77
122,22868,2436.74
123,22840,2456.71
124,22828,2476.69
125,22824,2496.66
126,22832,2516.63
127,22844,2536.61
128,22860,2556.58
129,22880,2576.55
130,22896,2596.53
131,22896,2616.50
132,22884,2636.47
133,22876,2656.45
134,22860,2676.42
135,22844,2696.39
136,22828,2716.37
137,22820,2736.34
138,22816,2756.31
139,22816,2776.29
140,22816,2796.26
141,22828,2816.23
142,22832,2836.21
143,22836,2856.18
144,22844,2876.15
145,22852,2896.13
146,22852,2916.10
147,22856,2936.07
148,22856,2956.05
149,22864,2976.02
150,22868,2995.99
151,22876,3015.97
152,22884,3035.94
153,22868,3055.91
154,22828,3075.89
155,22768,3095.86
156,22684,3115.83
157,22608,3135.81
158,22552,3155.78
159,22516,3175.75
160,22508,3195.73
161,22512,3215.70
162,22520,3235.67
163,22528,3255.65
164,22536,3275.62
165,22556,3295.59
166,22568,3315.57
167,22584,3335.54
168,22592,3355.51
169,22596,3375.49
170,22588,3395.46
171,22584,3415.43
172,22580,3435.41
173,22580,3455.38
174,22584,3475.35
175,22592,3495.33
176,22604,3515.30
177,22624,3535.27
178,22640,3555.25
179,22660,3575.22
180,22676,3595.19
181,22692,3615.17
182,22712,3635.14
183,22724,3655.11
184,22736,3675.08
185,22756,3695.06
186,22768,3715.03
187,22784,3735.00
188,22800,3754.98
189,22816,3774.95
190,22816,3794.92
191,22792,3814.90
192,22748,3834.87
193,22692,3854.84
194,22640,3874.82
195,22604,3894.79
196,22588,3914.76
197,22592,3934.74
198,22596,3954.71
199,22612,3974.68
200,22632,3994.66
201,22644,4014.63
202,22660,4034.60
203,22676,4054.58
204,22688,4074.55
205,22696,4094.52
206,22700,4114.50
207,22704,4134.47
208,22708,4154.44
209,22712,4174.42
210,22720,4194.39
211,22724,4214.36
212,22740,4234.34
213,22748,4254.31
214,22764,4274.28
215,22784,4294.26
216,22808,4314.23
217,22828,4334.20
218,22844,4354.18
219,22868,4374.15
220,22884,4394.12
221,22900,4414.10
222,22920,4434.07
223,22940,4454.04
224,22960,4474.02
225,22972,4493.99
226,22972,4513.96
227,22952,4533.94
228,22924,4553.91
229,22896,4573.88
230,22872,4593.86
231,22860,4613.83
232,22856,4633.80
233,22864,4653.78
234,22872,4673.75
235,22884,4693.72
236,22900,4713.70
237,22920,4733.67
238,22932,4753.64
239,22936,4773.62
240,22944,4793.59
241,22944,4813.56
242,22948,4833.54
243,22952,4853.51
244,22948,4873.48
245,22952,4893.46
246,22960,4913.43
247,22964,4933.40
248,22972,4953.38
249,22980,4973.35
250,22988,4993.32
251,22996,5013.30
252,23008,5033.27
253,23020,5053.24
254,23028,5073.22
255,23048,5093.19
256,23060,5113.16
257,23072,5133.13
258,23076,5153.11
259,23068,5173.08
260,23052,5193.05
261,23040,5213.03
262,23028,5233.00
263,23028,5252.97
264,23028,5272.95
265,23040,5292.92
266,23048,5312.89
267,23064,5332.87
268,23080,5352.84
269,23096,5372.81
270,23112,5392.79
271,23124,5412.76
272,23136,5432.73
273,23144,5452.71
274,23148,5472.68
275,23156,5492.65
276,23164,5512.63
277,23168,5532.60
278,23176,5552.57
279,23180,5572.55
280,23188,5592.52
281,23192,5612.49
282,23196,5632.47
283,23204,5652.44
284,23212,5672.41
285,23216,5692.39
286,23212,5712.36
287,23208,5732.33
288,23204,5752.31
289,23196,5772.28
290,23200,5792.25
291,23204,5812.23
292,23212,5832.20
293,23220,5852.17
294,23216,5872.15
295,23204,5892.12
296,23192,5912.09
297,23180,5932.07
298,23172,5952.04
299,23172,5972.01
300,23180,5991.99
301,23192,6011.96
302,23208,6031.93
303,23220,6051.91
304,23232,6071.88
305,23244,6091.85
306,23256,6111.83
307,23268,6131.80
308,23276,6151.77
309,23288,6171.75
310,23296,6191.72
311,23300,6211.69
312,23308,6231.67
313,23316,6251.64
314,23328,6271.61
315,23336,6291.59
316,23348,6311.56
317,23364,6331.53
318,23376,6351.51
319,23392,6371.48
320,23404,6391.45
321,23416,6411.43
322,23424,6431.40
323,23444,6451.37
324,23452,6471.35
325,23460,6491.32
326,23472,6511.29
327,23484,6531.27
328,23496,6551.24
329,23508,6571.21
330,23508,6591.18
331,23504,6611.16
332,23492,6631.13
333,23488,6651.10
334,23492,6671.08
335,23492,6691.05
336,23500,6711.02
337,23512,6731.00
338,23520,6750.97
339,23524,6770.94
340,23528,6790.92
341,23532,6810.89
342,23532,6830.86
343,23532,6850.84
344,23536,6870.81
345,23532,6890.78
346,23536,6910.76
347,23540,6930.73
348,23544,6950.70
349,23552,6970.68
350,23564,6990.65
351,23572,7010.62
352,23580,7030.60
353,23588,7050.57
354,23588,7070.54
355,23600,7090.52
356,23604,7110.49
357,23608,7130.46
358,23612,7150.44
359,23616,7170.41
360,23620,7190.38
361,23628,7210.36
362,23628,7230.33
363,23632,7250.30
364,23632,7270.28
365,23632,7290.25
366,23620,7310.22
367,23616,7330.20
368,23612,7350.17
369,23612,7370.14
370,23616,7390.12
371,23624,7410.09
372,23628,7430.06
373,23632,7450.04
374,23640,7470.01
375,23652,7489.98
376,23660,7509.96
377,23668,7529.93
378,23672,7549.90
379,23684,7569.88
380,23692,7589.85
381,23704,7609.82
382,23716,7629.80
383,23724,7649.77
384,23740,7669.74
385,23752,7689.72
386,23768,7709.69
387,23780,7729.66
388,23788,7749.64
389,23796,7769.61
390,23804,7789.58
391,23812,7809.56
392,23812,7829.53
393,23828,7849.50
394,23836,7869.48
395,23844,7889.45
396,23848,7909.42
397,23852,7929.40
398,23852,7949.37
399,23848,7969.34
400,23848,7989.32
401,23852,8009.29
402,23860,8029.26
403,23872,8049.23
404,23880,8069.21
405,23892,8089.18
406,23900,8109.15
407,23908,8129.13
408,23916,8149.10
409,23924,8169.07
410,23928,8189.05
411,23932,8209.02
412,23940,8228.99
413,23948,8248.97
414,23952,8268.94
415,23964,8288.91
416,23968,8308.89
417,23980,8328.86
418,23988,8348.83
419,23992,8368.81
420,24000,8388.78
421,24004,8408.75
422,24012,8428.73
423,24016,8448.70
424,24024,8468.67
425,24036,8488.65
426,24040,8508.62
427,24044,8528.59
428,24056,8548.57
429,24056,8568.54
430,24060,8588.51
431,24068,8608.49
432,24072,8628.46
433,24076,8648.43
434,24080,8668.41
435,24076,8688.38
436,24072,8708.35
437,24072,8728.33
438,24076,8748.30
439,24080,8768.27
440,24088,8788.25
441,24092,8808.22
442,24100,8828.19
443,24108,8848.17
444,24116,8868.14
445,24124,8888.11
446,24128,8908.09
447,24132,8928.06
448,24136,8948.03
449,24144,8968.01
450,24148,8987.98
451,24148,9007.95
452,24156,9027.93
453,24160,9047.90
454,24168,9067.87
455,24172,9087.85
456,24180,9107.82
457,24180,9127.79
458,24180,9147.77
459,24180,9167.74
460,24184,9187.71
461,24188,9207.69
462,24192,9227.66
463,24192,9247.63
464,24196,9267.61
465,24200,9287.58
466,24196,9307.55
467,24200,9327.53
468,24200,9347.50
469,24196,9367.47
470,24196,9387.45
471,24196,9407.42
472,24196,9427.39
473,24200,9447.37
474,24200,9467.34
475,24196,9487.31
476,24184,9507.28
477,24176,9527.26
478,24168,9547.23
479,24164,9567.20
480,24156,9587.18
481,24164,9607.15
482,24164,9627.12
483,24172,9647.10
484,24172,9667.07
485,24172,9687.04
486,24176,9707.02
487,24180,9726.99
488,24184,9746.96
489,24184,9766.94
490,24184,9786.91
491,24188,9806.88
492,24192,9826.86
493,24192,9846.83
494,24196,9866.80
495,24204,9886.78
496,24200,9906.75
497,24204,9926.72
498,24208,9946.70
499,24212,9966.67
500,24216,9986.64
501,24216,10006.62
502,24224,10026.59
503,24224,10046.56
504,24228,10066.54
505,24228,10086.51
506,24228,10106.48
507,24228,10126.46
508,24232,10146.43
509,24236,10166.40
510,24236,10186.38
511,24240,10206.35
512,24228,10226.32
513,24224,10246.30
514,24220,10266.27
515,24212,10286.24
516,24212,10306.22
517,24208,10326.19
518,24212,10346.16
519,24216,10366.14
520,24224,10386.11
521,24228,10406.08
522,24232,10426.06
523,24236,10446.03
524,24236,10466.00
525,24236,10485.98
526,24240,10505.95
527,24240,10525.92
528,24240,10545.90
529,24244,10565.87
530,24248,10585.84
531,24252,10605.82
532,24260,10625.79
533,24264,10645.76
534,24268,10665.74
535,24272,10685.71
536,24280,10705.68
537,24288,10725.66
538,24296,10745.63
539,24300,10765.60
540,24304,10785.58
541,24308,10805.55
542,24312,10825.52
543,24316,10845.50
544,24324,10865.47
545,24328,10885.44
546,24328,10905.42
547,24336,10925.39
548,24340,10945.36
549,24348,10965.33
550,24348,10985.31
551,24344,11005.28
552,24332,11025.25
553,24316,11045.23
554,24300,11065.20
555,24284,11085.17
556,24280,11105.15
557,24272,11125.12
558,24268,11145.09
559,24260,11165.07
560,24256,11185.04
561,24252,11205.01
562,24252,11224.99
563,24252,11244.96
564,24248,11264.93
565,24244,11284.91
566,24240,11304.88
567,24232,11324.85
568,24232,11344.83
569,24232,11364.80
570,24232,11384.77
571,24224,11404.75
572,24224,11424.72
573,24224,11444.69
574,24228,11464.67
575,24228,11484.64
576,24232,11504.61
577,24236,11524.59
578,24232,11544.56
579,24232,11564.53
580,24232,11584.51
581,24228,11604.48
582,24228,11624.45
583,24224,11644.43
584,24220,11664.40
585,24220,11684.37
586,24216,11704.35
587,24212,11724.32
588,24208,11744.29
589,24204,11764.27
590,24192,11784.24
591,24180,11804.21
592,24160,11824.19
593,24140,11844.16
594,24124,11864.13
595,24108,11884.11
596,24096,11904.08
597,24096,11924.05
598,24088,11944.03
599,24084,11964.00
600,24076,11983.97
601,24072,12003.95
602,24068,12023.92
603,24064,12043.89
604,24060,12063.87
605,24056,12083.84
606,24044,12103.81
607,24036,12123.79
608,24024,12143.76
609,24016,12163.73
610,24008,12183.71
611,24008,12203.68
612,24004,12223.65
613,24004,12243.63
614,24004,12263.60
615,24000,12283.57
616,24000,12303.55
617,23996,12323.52
618,23992,12343.49
619,23992,12363.47
620,23988,12383.44
621,23988,12403.41
622,23984,12423.38
623,23988,12443.36
624,23992,12463.33
625,24000,12483.30
626,24004,12503.28
627,24000,12523.25
628,23988,12543.22
629,23976,12563.20
630,23948,12583.17
631,23924,12603.14
632,23900,12623.12
633,23880,12643.09
634,23872,12663.06
635,23868,12683.04
636,23872,12703.01
637,23876,12722.98
638,23884,12742.96
639,23888,12762.93
640,23900,12782.90
641,23908,12802.88
642,23912,12822.85
643,23908,12842.82
644,23912,12862.80
645,23908,12882.77
646,23908,12902.74
647,23908,12922.72
648,23912,12942.69
649,23916,12962.66
650,23920,12982.64
651,23924,13002.61
652,23936,13022.58
653,23944,13042.56
654,23944,13062.53
655,23952,13082.50
656,23960,13102.48
657,23964,13122.45
658,23972,13142.42
659,23972,13162.40
660,23980,13182.37
661,23988,13202.34
662,23992,13222.32
663,23992,13242.29
664,23980,13262.26
665,23956,13282.24
666,23932,13302.21
667,23904,13322.18
668,23884,13342.16
669,23872,13362.13
670,23868,13382.10
671,23868,13402.08
672,23872,13422.05
673,23876,13442.02
674,23884,13462.00
675,23884,13481.97
676,23892,13501.94
677,23896,13521.92
678,23896,13541.89
679,23896,13561.86
680,23900,13581.84
681,23896,13601.81
682,23896,13621.78
683,23896,13641.76
684,23896,13661.73
685,23900,13681.70
686,23904,13701.68
687,23908,13721.65
688,23920,13741.62
689,23920,13761.60
690,23928,13781.57
691,23932,13801.54
692,23940,13821.52
693,23944,13841.49
694,23944,13861.46
695,23948,13881.43
696,23952,13901.41
697,23952,13921.38
698,23940,13941.35
699,23920,13961.33
700,23888,13981.30
701,23856,14001.27
702,23832,14021.25
703,23816,14041.22
704,23808,14061.19
705,23804,14081.17
706,23808,14101.14
707,23812,14121.11
708,23820,14141.09
709,23828,14161.06
710,23828,14181.03
711,23832,14201.01
712,23828,14220.98
713,23828,14240.95
714,23824,14260.93
715,23820,14280.90
716,23820,14300.87
717,23816,14320.85
718,23816,14340.82
719,23816,14360.79
720,23812,14380.77
721,23812,14400.74
722,23812,14420.71
723,23808,14440.69
724,23800,14460.66
725,23780,14480.63
726,23756,14500.61
727,23724,14520.58
728,23692,14540.55
729,23660,14560.53
730,23632,14580.50
731,23604,14600.47
732,23568,14620.45
733,23516,14640.42
734,23468,14660.39
735,23416,14680.37
736,23380,14700.34
737,23360,14720.31
738,23360,14740.29
739,23364,14760.26
740,23372,14780.23
741,23388,14800.21
742,23400,14820.18
743,23412,14840.15
744,23424,14860.13
745,23436,14880.10
746,23444,14900.07
747,23452,14920.05
748,23460,14940.02
749,23468,14959.99
750,23476,14979.97
751,23488,14999.94
752,23500,15019.91
753,23508,15039.89
754,23524,15059.86
755,23536,15079.83
756,23548,15099.81
757,23564,15119.78
758,23572,15139.75
759,23584,15159.73
760,23596,15179.70
761,23604,15199.67
762,23608,15219.65
763,23596,15239.62
764,23576,15259.59
765,23552,15279.57
766,23528,15299.54
767,23516,15319.51
768,23512,15339.48
769,23516,15359.46
770,23520,15379.43
771,23528,15399.40
772,23540,15419.38
773,23556,15439.35
774,23572,15459.32
775,23580,15479.30
776,23588,15499.27
777,23588,15519.24
778,23584,15539.22
779,23588,15559.19
780,23592,15579.16
781,23596,15599.14
782,23608,15619.11
783,23616,15639.08
784,23628,15659.06
785,23636,15679.03
786,23652,15699.00
787,23664,15718.98
788,23672,15738.95
789,23684,15758.92
790,23696,15778.90
791,23708,15798.87
792,23720,15818.84
793,23728,15838.82
794,23720,15858.79
795,23700,15878.76
796,23668,15898.74
797,23636,15918.71
798,23608,15938.68
799,23596,15958.66
800,23600,15978.63
801,23600,15998.60
802,23608,16018.58
803,23620,16038.55
804,23624,16058.52
805,23636,16078.50
806,23644,16098.47
807,23648,16118.44
808,23652,16138.42
809,23648,16158.39
810,23644,16178.36
811,23644,16198.34
812,23644,16218.31
813,23644,16238.28
814,23648,16258.26
815,23664,16278.23
816,23660,16298.20
817,23672,16318.18
818,23676,16338.15
819,23688,16358.12
820,23700,16378.10
821,23708,16398.07
822,23720,16418.04
823,23728,16438.02
824,23736,16457.99
825,23744,16477.96
826,23744,16497.94
827,23728,16517.91
828,23700,16537.88
829,23668,16557.86
830,23636,16577.83
831,23616,16597.80
832,23608,16617.78
833,23612,16637.75
834,23612,16657.72
835,23616,16677.70
836,23624,16697.67
837,23636,16717.64
838,23640,16737.62
839,23652,16757.59
840,23660,16777.56
841,23660,16797.53
842,23660,16817.51
843,23652,16837.48
844,23652,16857.45
845,23652,16877.43
846,23652,16897.40
847,23656,16917.37
848,23664,16937.35
849,23672,16957.32
850,23684,16977.29
851,23696,16997.27
852,23708,17017.24
853,23724,17037.21
854,23732,17057.19
855,23748,17077.16
856,23756,17097.13
857,23768,17117.11
858,23780,17137.08
859,23792,17157.05
860,23804,17177.03
861,23808,17197.00
862,23792,17216.97
863,23772,17236.95
864,23740,17256.92
865,23708,17276.89
866,23688,17296.87
867,23680,17316.84
868,23680,17336.81
869,23684,17356.79
870,23692,17376.76
871,23696,17396.73
872,23708,17416.71
873,23716,17436.68
874,23724,17456.65
875,23724,17476.63
876,23728,17496.60
877,23724,17516.57
878,23728,17536.55
879,23728,17556.52
880,23728,17576.49
881,23736,17596.47
882,23740,17616.44
883,23744,17636.41
884,23752,17656.39
885,23756,17676.36
886,23768,17696.33
887,23780,17716.31
888,23792,17736.28
889,23804,17756.25
890,23812,17776.23
891,23828,17796.20
892,23836,17816.17
893,23840,17836.15
894,23832,17856.12
895,23812,17876.09
896,23780,17896.07
897,23752,17916.04
898,23724,17936.01
899,23712,17955.99
900,23712,17975.96
901,23716,17995.93
902,23724,18015.91
903,23732,18035.88
904,23740,18055.85
905,23748,18075.83
906,23752,18095.80
907,23756,18115.77
908,23760,18135.75
909,23756,18155.72
910,23756,18175.69
911,23756,18195.67
912,23752,18215.64
913,23756,18235.61
914,23768,18255.58
915,23772,18275.56
916,23780,18295.53
917,23788,18315.50
918,23792,18335.48
919,23800,18355.45
920,23800,18375.42
921,23808,18395.40
922,23812,18415.37
923,23824,18435.34
924,23828,18455.32
925,23836,18475.29
926,23836,18495.26
927,23844,18515.24
928,23844,18535.21
929,23840,18555.18
930,23824,18575.16
931,23800,18595.13
932,23764,18615.10
933,23728,18635.08
934,23704,18655.05
935,23688,18675.02
936,23684,18695.00
937,23688,18714.97
938,23688,18734.94
939,23688,18754.92
940,23696,18774.89
941,23704,18794.86
942,23708,18814.84
943,23708,18834.81
944,23708,18854.78
945,23704,18874.76
946,23700,18894.73
947,23692,18914.70
948,23692,18934.68
949,23688,18954.65
950,23688,18974.62
951,23696,18994.60
952,23704,19014.57
953,23708,19034.54
954,23712,19054.52
955,23716,19074.49
956,23720,19094.46
957,23724,19114.44
958,23732,19134.41
959,23736,19154.38
960,23744,19174.36
961,23752,19194.33
962,23760,19214.30
963,23764,19234.28
964,23772,19254.25
965,23776,19274.22
966,23768,19294.20
967,23744,19314.17
968,23704,19334.14
969,23664,19354.12
970,23628,19374.09
971,23604,19394.06
972,23600,19414.04
973,23596,19434.01
974,23600,19453.98
975,23612,19473.96
976,23620,19493.93
977,23632,19513.90
978,23644,19533.88
979,23656,19553.85
980,23664,19573.82
981,23664,19593.80
982,23660,19613.77
983,23660,19633.74
984,23664,19653.72
985,23664,19673.69
986,23668,19693.66
987,23680,19713.63
988,23692,19733.61
989,23700,19753.58
990,23712,19773.55
991,23720,19793.53
992,23728,19813.50
993,23732,19833.47
994,23744,19853.45
995,23752,19873.42
996,23756,19893.39
997,23768,19913.37
998,23776,19933.34
999,23772,19953.31
1000,23756,19973.29
1001,23720,19993.26
1002,23684,20013.23
1003,23652,20033.21
1004,23628,20053.18
1005,23616,20073.15
1006,23616,20093.13
1007,23624,20113.10
1008,23628,20133.07
1009,23636,20153.05
1010,23648,20173.02
1011,23656,20192.99
1012,23664,20212.97
1013,23668,20232.94
1014,23672,20252.91
1015,23672,20272.89
1016,23672,20292.86
1017,23676,20312.83
1018,23676,20332.81
1019,23680,20352.78
1020,23688,20372.75
1021,23696,20392.73
1022,23704,20412.70
1023,23716,20432.67
1024,23728,20452.65
1025,23736,20472.62
1026,23748,20492.59
1027,23756,20512.57
1028,23772,20532.54
1029,23776,20552.51
1030,23784,20572.49
1031,23800,20592.46
1032,23804,20612.43
1033,23804,20632.41
1034,23792,20652.38
1035,23764,20672.35
1036,23728,20692.33
1037,23696,20712.30
1038,23672,20732.27
1039,23660,20752.25
1040,23656,20772.22
1041,23660,20792.19
1042,23668,20812.17
1043,23676,20832.14
1044,23688,20852.11
1045,23692,20872.09
1046,23696,20892.06
1047,23696,20912.03
1048,23696,20932.01
1049,23688,20951.98
1050,23680,20971.95
1051,23676,20991.93
1052,23676,21011.90
1053,23676,21031.87
1054,23680,21051.85
1055,23680,21071.82
1056,23688,21091.79
1057,23700,21111.77
1058,23708,21131.74
1059,23720,21151.71
1060,23732,21171.68
1061,23748,21191.66
1062,23764,21211.63
1063,23776,21231.60
1064,23792,21251.58
1065,23804,21271.55
1066,23800,21291.52
1067,23776,21311.50
1068,23744,21331.47
1069,23696,21351.44
1070,23664,21371.42
1071,23640,21391.39
1072,23632,21411.36
1073,23644,21431.34
1074,23652,21451.31
1075,23672,21471.28
1076,23680,21491.26
1077,23700,21511.23
1078,23712,21531.20
1079,23728,21551.18
1080,23732,21571.15
1081,23736,21591.12
1082,23736,21611.10
1083,23736,21631.07
1084,23736,21651.04
1085,23740,21671.02
1086,23748,21690.99
1087,23760,21710.96
1088,23768,21730.94
1089,23784,21750.91
1090,23800,21770.88
1091,23812,21790.86
1092,23828,21810.83
1093,23848,21830.80
1094,23860,21850.78
1095,23872,21870.75
1096,23884,21890.72
1097,23888,21910.70
1098,23872,21930.67
1099,23836,21950.64
1100,23796,21970.62
1101,23752,21990.59
1102,23724,22010.56
1103,23704,22030.54
1104,23696,22050.51
1105,23696,22070.48
1106,23708,22090.46
1107,23720,22110.43
1108,23728,22130.40
1109,23744,22150.38
1110,23748,22170.35
1111,23756,22190.32
1112,23752,22210.30
1113,23748,22230.27
1114,23748,22250.24
1115,23748,22270.22
1116,23748,22290.19
1117,23752,22310.16
1118,23756,22330.14
1119,23768,22350.11
1120,23780,22370.08
1121,23792,22390.06
1122,23804,22410.03
1123,23812,22430.00
1124,23828,22449.98
1125,23840,22469.95
1126,23856,22489.92
1127,23868,22509.90
1128,23864,22529.87
1129,23836,22549.84
1130,23800,22569.82
1131,23752,22589.79
1132,23708,22609.76
1133,23676,22629.73
1134,23660,22649.71
1135,23656,22669.68
1136,23652,22689.65
1137,23656,22709.63
1138,23664,22729.60
1139,23668,22749.57
1140,23672,22769.55
1141,23672,22789.52
1142,23672,22809.49
1143,23668,22829.47
1144,23664,22849.44
1145,23652,22869.41
1146,23648,22889.39
1147,23648,22909.36
1148,23648,22929.33
1149,23648,22949.31
1150,23644,22969.28
1151,23648,22989.25
1152,23652,23009.23
1153,23660,23029.20
1154,23672,23049.17
1155,23684,23069.15
1156,23692,23089.12
1157,23708,23109.09
1158,23704,23129.07
1159,23688,23149.04
1160,23652,23169.01
1161,23604,23188.99
1162,23556,23208.96
1163,23520,23228.93
1164,23504,23248.91
1165,23500,23268.88
1166,23508,23288.85
1167,23516,23308.83
1168,23536,23328.80
1169,23556,23348.77
1170,23572,23368.75
1171,23588,23388.72
1172,23596,23408.69
1173,23600,23428.67
1174,23604,23448.64
1175,23600,23468.61
1176,23604,23488.59
1177,23604,23508.56
1178,23608,23528.53
1179,23616,23548.51
1180,23632,23568.48
1181,23644,23588.45
1182,23652,23608.43
1183,23668,23628.40
1184,23680,23648.37
1185,23696,23668.35
1186,23704,23688.32
1187,23708,23708.29
1188,23708,23728.27
1189,23680,23748.24
1190,23632,23768.21
1191,23584,23788.19
1192,23536,23808.16
1193,23504,23828.13
1194,23484,23848.11
1195,23484,23868.08
1196,23484,23888.05
1197,23492,23908.03
1198,23500,23928.00
1199,23516,23947.97
1200,23528,23967.95
1201,23536,23987.92
1202,23540,24007.89
1203,23536,24027.87
1204,23532,24047.84
1205,23528,24067.81
1206,23532,24087.78
1207,23528,24107.76
1208,23536,24127.73
1209,23544,24147.70
1210,23548,24167.68
1211,23552,24187.65
1212,23564,24207.62
1213,23576,24227.60
1214,23588,24247.57
1215,23596,24267.54
1216,23604,24287.52
1217,23612,24307.49
1218,23608,24327.46
1219,23588,24347.44
1220,23544,24367.41
1221,23496,24387.38
1222,23456,24407.36
1223,23432,24427.33
1224,23420,24447.30
1225,23420,24467.28
1226,23428,24487.25
1227,23444,24507.22
1228,23464,24527.20
1229,23480,24547.17
1230,23496,24567.14
1231,23512,24587.12
1232,23516,24607.09
1233,23520,24627.06
1234,23524,24647.04
1235,23524,24667.01
1236,23524,24686.98
1237,23528,24706.96
1238,23532,24726.93
1239,23536,24746.90
1240,23552,24766.88
1241,23556,24786.85
1242,23564,24806.82
1243,23576,24826.80
1244,23592,24846.77
1245,23604,24866.74
1246,23616,24886.72
1247,23628,24906.69
1248,23624,24926.66
1249,23604,24946.64
1250,23556,24966.61
1251,23508,24986.58
1252,23460,25006.56
1253,23428,25026.53
1254,23412,25046.50
1255,23412,25066.48
1256,23416,25086.45
1257,23424,25106.42
1258,23432,25126.40
1259,23448,25146.37
1260,23464,25166.34
1261,23476,25186.32
1262,23480,25206.29
1263,23480,25226.26
1264,23480,25246.24
1265,23480,25266.21
1266,23488,25286.18
1267,23496,25306.16
1268,23500,25326.13
1269,23512,25346.10
1270,23524,25366.08
1271,23536,25386.05
1272,23552,25406.02
1273,23572,25426.00
1274,23584,25445.97
1275,23600,25465.94
1276,23612,25485.92
1277,23596,25505.89
1278,23556,25525.86
1279,23504,25545.84
1280,23456,25565.81
1281,23424,25585.78
1282,23408,25605.75
1283,23404,25625.73
1284,23408,25645.70
1285,23416,25665.67
1286,23432,25685.65
1287,23444,25705.62
1288,23460,25725.59
1289,23464,25745.57
1290,23464,25765.54
1291,23464,25785.51
1292,23456,25805.49
1293,23448,25825.46
1294,23440,25845.43
1295,23440,25865.41
1296,23444,25885.38
1297,23452,25905.35
1298,23460,25925.33
1299,23468,25945.30
1300,23476,25965.27
1301,23488,25985.25
1302,23496,26005.22
1303,23508,26025.19
1304,23520,26045.17
1305,23516,26065.14
1306,23492,26085.11
1307,23444,26105.09
1308,23396,26125.06
1309,23348,26145.03
1310,23316,26165.01
1311,23308,26184.98
1312,23304,26204.95
1313,23312,26224.93
1314,23320,26244.90
1315,23336,26264.87
1316,23352,26284.85
1317,23364,26304.82
1318,23372,26324.79
1319,23376,26344.77
1320,23380,26364.74
1321,23376,26384.71
1322,23380,26404.69
1323,23384,26424.66
1324,23384,26444.63
1325,23392,26464.61
1326,23396,26484.58
1327,23408,26504.55
1328,23420,26524.53
1329,23432,26544.50
1330,23440,26564.47
1331,23448,26584.45
1332,23460,26604.42
1333,23476,26624.39
1334,23484,26644.37
1335,23472,26664.34
1336,23436,26684.31
1337,23396,26704.29
1338,23344,26724.26
1339,23308,26744.23
1340,23284,26764.21
1341,23284,26784.18
1342,23292,26804.15
1343,23304,26824.13
1344,23320,26844.10
1345,23340,26864.07
1346,23360,26884.05
1347,23372,26904.02
1348,23380,26923.99
1349,23380,26943.97
1350,23380,26963.94
1351,23380,26983.91
1352,23380,27003.89
1353,23384,27023.86
1354,23388,27043.83
1355,23396,27063.80
1356,23400,27083.78
1357,23412,27103.75
1358,23428,27123.72
1359,23440,27143.70
1360,23464,27163.67
1361,23484,27183.64
1362,23500,27203.62
1363,23500,27223.59
1364,23476,27243.56
1365,23436,27263.54
1366,23384,27283.51
1367,23348,27303.48
1368,23328,27323.46
1369,23324,27343.43
1370,23328,27363.40
1371,23340,27383.38
1372,23352,27403.35
1373,23368,27423.32
1374,23388,27443.30
1375,23404,27463.27
1376,23408,27483.24
1377,23408,27503.22
1378,23408,27523.19
1379,23400,27543.16
1380,23396,27563.14
1381,23396,27583.11
1382,23400,27603.08
1383,23408,27623.06
1384,23416,27643.03
1385,23428,27663.00
1386,23436,27682.98
1387,23448,27702.95
1388,23460,27722.92
1389,23476,27742.90
1390,23484,27762.87
1391,23484,27782.84
1392,23456,27802.82
1393,23404,27822.79
1394,23348,27842.76
1395,23300,27862.74
1396,23268,27882.71
1397,23252,27902.68
1398,23248,27922.66
1399,23260,27942.63
1400,23272,27962.60
1401,23288,27982.58
1402,23300,28002.55
1403,23316,28022.52
1404,23328,28042.50
1405,23328,28062.47
1406,23328,28082.44
1407,23324,28102.42
1408,23316,28122.39
1409,23312,28142.36
1410,23312,28162.34
1411,23316,28182.31
1412,23324,28202.28
1413,23340,28222.26
1414,23352,28242.23
1415,23360,28262.20
1416,23372,28282.18
1417,23384,28302.15
1418,23400,28322.12
1419,23412,28342.10
1420,23400,28362.07
1421,23364,28382.04
1422,23312,28402.02
1423,23256,28421.99
1424,23216,28441.96
1425,23192,28461.94
1426,23180,28481.91
1427,23180,28501.88
1428,23184,28521.85
1429,23196,28541.83
1430,23216,28561.80
1431,23228,28581.77
1432,23240,28601.75
1433,23252,28621.72
1434,23256,28641.69
1435,23260,28661.67
1436,23252,28681.64
1437,23248,28701.61
1438,23244,28721.59
1439,23244,28741.56
1440,23256,28761.53
1441,23260,28781.51
1442,23264,28801.48
1443,23276,28821.45
1444,23284,28841.43
1445,23296,28861.40
1446,23308,28881.37
1447,23316,28901.35
1448,23320,28921.32
1449,23304,28941.29
1450,23264,28961.27
1451,23216,28981.24
1452,23164,29001.21
1453,23128,29021.19
1454,23108,29041.16
1455,23100,29061.13
1456,23096,29081.11
1457,23104,29101.08
1458,23112,29121.05
1459,23128,29141.03
1460,23132,29161.00
1461,23136,29180.97
1462,23140,29200.95
1463,23136,29220.92
1464,23136,29240.89
1465,23128,29260.87
1466,23128,29280.84
1467,23132,29300.81
1468,23136,29320.79
1469,23144,29340.76
1470,23156,29360.73
1471,23172,29380.71
1472,23184,29400.68
1473,23204,29420.65
1474,23220,29440.63
1475,23232,29460.60
1476,23236,29480.57
1477,23212,29500.55
1478,23168,29520.52
1479,23116,29540.49
1480,23068,29560.47
1481,23040,29580.44
1482,23024,29600.41
1483,23024,29620.39
1484,23028,29640.36
1485,23036,29660.33
1486,23048,29680.31
1487,23068,29700.28
1488,23084,29720.25
1489,23092,29740.23
1490,23092,29760.20
1491,23092,29780.17
1492,23092,29800.15
1493,23088,29820.12
1494,23084,29840.09
1495,23080,29860.07
1496,23080,29880.04
1497,23088,29900.01
1498,23100,29919.99
1499,23108,29939.96
1500,23120,29959.93
1501,23136,29979.90
1502,23148,29999.88
1503,23164,30019.85
1504,23172,30039.82
1505,23164,30059.80
1506,23128,30079.77
1507,23080,30099.74
1508,23024,30119.72
1509,22988,30139.69
1510,22964,30159.66
1511,22960,30179.64
1512,22972,30199.61
1513,22976,30219.58
1514,22996,30239.56
1515,23012,30259.53
1516,23024,30279.50
1517,23044,30299.48
1518,23060,30319.45
1519,23068,30339.42
1520,23076,30359.40
1521,23072,30379.37
1522,23080,30399.34
1523,23084,30419.32
1524,23088,30439.29
1525,23092,30459.26
1526,23104,30479.24
1527,23112,30499.21
1528,23128,30519.18
1529,23144,30539.16
1530,23160,30559.13
1531,23176,30579.10
1532,23188,30599.08
1533,23200,30619.05
1534,23196,30639.02
1535,23176,30659.00
1536,23136,30678.97
1537,23088,30698.94
1538,23044,30718.92
1539,23016,30738.89
1540,23004,30758.86
1541,23008,30778.84
1542,23020,30798.81
1543,23032,30818.78
1544,23052,30838.76
1545,23076,30858.73
1546,23100,30878.70
1547,23112,30898.68
1548,23128,30918.65
1549,23132,30938.62
1550,23132,30958.60
1551,23132,30978.57
1552,23136,30998.54
1553,23136,31018.52
1554,23148,31038.49
1555,23156,31058.46
1556,23172,31078.44
1557,23188,31098.41
1558,23208,31118.38
1559,23224,31138.36
1560,23240,31158.33
1561,23252,31178.30
1562,23264,31198.28
1563,23260,31218.25
1564,23236,31238.22
1565,23192,31258.20
1566,23140,31278.17
1567,23104,31298.14
1568,23080,31318.12
1569,23068,31338.09
1570,23080,31358.06
1571,23092,31378.04
1572,23112,31398.01
1573,23132,31417.98
1574,23160,31437.95
1575,23184,31457.93
1576,23200,31477.90
1577,23212,31497.87
1578,23220,31517.85
1579,23220,31537.82
1580,23224,31557.79
1581,23228,31577.77
1582,23232,31597.74
1583,23240,31617.71
1584,23252,31637.69
1585,23268,31657.66
1586,23284,31677.63
1587,23304,31697.61
1588,23320,31717.58
1589,23340,31737.55
1590,23352,31757.53
1591,23368,31777.50
1592,23352,31797.47
1593,23320,31817.45
1594,23276,31837.42
1595,23220,31857.39
1596,23180,31877.37
1597,23164,31897.34
1598,23152,31917.31
1599,23156,31937.29
1600,23160,31957.26
1601,23176,31977.23
1602,23192,31997.21
1603,23216,32017.18
1604,23232,32037.15
1605,23244,32057.13
1606,23248,32077.10
1607,23252,32097.07
1608,23248,32117.05
1609,23248,32137.02
1610,23244,32156.99
1611,23244,32176.97
1612,23252,32196.94
1613,23264,32216.91
1614,23276,32236.89
1615,23288,32256.86
1616,23300,32276.83
1617,23320,32296.81
1618,23336,32316.78
1619,23356,32336.75
1620,23368,32356.73
1621,23356,32376.70
1622,23320,32396.67
1623,23272,32416.65
1624,23232,32436.62
1625,23200,32456.59
1626,23180,32476.57
1627,23176,32496.54
1628,23184,32516.51
1629,23196,32536.49
1630,23212,32556.46
1631,23232,32576.43
1632,23252,32596.41
1633,23272,32616.38
1634,23276,32636.35
1635,23284,32656.33
1636,23284,32676.30
1637,23280,32696.27
1638,23276,32716.25
1639,23276,32736.22
1640,23268,32756.19
1641,23268,32776.17
1642,23272,32796.14
1643,23276,32816.11
1644,23284,32836.09
1645,23296,32856.06
1646,23304,32876.03
1647,23320,32896.00
1648,23328,32915.98
1649,23332,32935.95
1650,23312,32955.92
1651,23272,32975.90
1652,23228,32995.87
1653,23180,33015.84
1654,23148,33035.82
1655,23136,33055.79
1656,23132,33075.76
1657,23140,33095.74
1658,23160,33115.71
1659,23172,33135.68
1660,23196,33155.66
1661,23212,33175.63
1662,23224,33195.60
1663,23232,33215.58
1664,23240,33235.55
1665,23244,33255.52
1666,23252,33275.50
1667,23260,33295.47
1668,23272,33315.44
1669,23284,33335.42
1670,23304,33355.39
1671,23320,33375.36
1672,23340,33395.34
1673,23356,33415.31
1674,23372,33435.28
1675,23388,33455.26
1676,23400,33475.23
1677,23392,33495.20
1678,23364,33515.18
1679,23316,33535.15
1680,23268,33555.12
1681,23232,33575.10
1682,23216,33595.07
1683,23212,33615.04
1684,23216,33635.02
1685,23236,33654.99
1686,23260,33674.96
1687,23280,33694.94
1688,23308,33714.91
1689,23320,33734.88
1690,23340,33754.86
1691,23348,33774.83
1692,23352,33794.80
1693,23352,33814.78
1694,23352,33834.75
1695,23352,33854.72
1696,23360,33874.70
1697,23368,33894.67
1698,23380,33914.64
1699,23392,33934.62
1700,23400,33954.59
1701,23416,33974.56
1702,23428,33994.54
1703,23448,34014.51
1704,23452,34034.48
1705,23428,34054.46
1706,23384,34074.43
1707,23328,34094.40
1708,23268,34114.38
1709,23228,34134.35
1710,23208,34154.32
1711,23200,34174.30
1712,23204,34194.27
1713,23212,34214.24
1714,23232,34234.22
1715,23252,34254.19
1716,23272,34274.16
1717,23284,34294.14
1718,23292,34314.11
1719,23296,34334.08
1720,23292,34354.05
1721,23292,34374.03
1722,23288,34394.00
1723,23296,34413.97
1724,23296,34433.95
1725,23304,34453.92
1726,23312,34473.89
1727,23320,34493.87
1728,23336,34513.84
1729,23352,34533.81
1730,23360,34553.79
1731,23364,34573.76
1732,23360,34593.73
1733,23328,34613.71
1734,23284,34633.68
1735,23228,34653.65
1736,23176,34673.63
1737,23132,34693.60
1738,23108,34713.57
1739,23104,34733.55
1740,23112,34753.52
1741,23124,34773.49
1742,23144,34793.47
1743,23160,34813.44
1744,23176,34833.41
1745,23192,34853.39
1746,23204,34873.36
1747,23204,34893.33
1748,23204,34913.31
1749,23196,34933.28
1750,23192,34953.25
1751,23192,34973.23
1752,23192,34993.20
1753,23196,35013.17
1754,23192,35033.15
1755,23192,35053.12
1756,23192,35073.09
1757,23196,35093.07
1758,23204,35113.04
1759,23208,35133.01
1760,23196,35152.99
1761,23172,35172.96
1762,23128,35192.93
1763,23088,35212.91
1764,23056,35232.88
1765,23036,35252.85
1766,23040,35272.83
1767,23056,35292.80
1768,23076,35312.77
1769,23104,35332.75
1770,23136,35352.72
1771,23160,35372.69
1772,23184,35392.67
1773,23196,35412.64
1774,23212,35432.61
1775,23216,35452.59
1776,23220,35472.56
1777,23224,35492.53
1778,23228,35512.51
1779,23236,35532.48
1780,23244,35552.45
1781,23252,35572.43
1782,23268,35592.40
1783,23280,35612.37
1784,23292,35632.35
1785,23308,35652.32
1786,23320,35672.29
1787,23312,35692.27
1788,23280,35712.24
1789,23224,35732.21
1790,23164,35752.19
1791,23108,35772.16
1792,23072,35792.13
1793,23060,35812.10
1794,23060,35832.08
1795,23068,35852.05
1796,23088,35872.02
1797,23108,35892.00
1798,23136,35911.97
1799,23156,35931.94
1800,23168,35951.92
1801,23176,35971.89
1802,23180,35991.86
1803,23180,36011.84
1804,23180,36031.81
1805,23184,36051.78
1806,23184,36071.76
1807,23192,36091.73
1808,23200,36111.70
1809,23212,36131.68
1810,23224,36151.65
1811,23244,36171.62
1812,23260,36191.60
1813,23280,36211.57
1814,23292,36231.54
1815,23284,36251.52
1816,23248,36271.49
1817,23196,36291.46
1818,23140,36311.44
1819,23100,36331.41
1820,23076,36351.38
1821,23072,36371.36
1822,23072,36391.33
1823,23088,36411.30
1824,23104,36431.28
1825,23124,36451.25
1826,23144,36471.22
1827,23160,36491.20
1828,23176,36511.17
1829,23184,36531.14
1830,23180,36551.12
1831,23180,36571.09
1832,23180,36591.06
1833,23184,36611.04
1834,23192,36631.01
1835,23200,36650.98
1836,23208,36670.96
1837,23220,36690.93
1838,23232,36710.90
1839,23244,36730.88
1840,23264,36750.85
1841,23276,36770.82
1842,23292,36790.80
1843,23280,36810.77
1844,23244,36830.74
1845,23184,36850.72
1846,23120,36870.69
1847,23072,36890.66
1848,23044,36910.64
1849,23028,36930.61
1850,23028,36950.58
1851,23044,36970.56
1852,23056,36990.53
1853,23076,37010.50
1854,23096,37030.48
1855,23112,37050.45
1856,23124,37070.42
1857,23124,37090.40
1858,23116,37110.37
1859,23108,37130.34
1860,23104,37150.32
1861,23108,37170.29
1862,23112,37190.26
1863,23116,37210.24
1864,23132,37230.21
1865,23144,37250.18
1866,23164,37270.15
1867,23184,37290.13
1868,23204,37310.10
1869,23224,37330.07
1870,23228,37350.05
1871,23200,37370.02
1872,23152,37389.99
1873,23100,37409.97
1874,23052,37429.94
1875,23032,37449.91
1876,23024,37469.89
1877,23032,37489.86
1878,23048,37509.83
1879,23068,37529.81
1880,23096,37549.78
1881,23128,37569.75
1882,23144,37589.73
1883,23168,37609.70
1884,23176,37629.67
1885,23176,37649.65
1886,23176,37669.62
1887,23172,37689.59
1888,23172,37709.57
1889,23176,37729.54
1890,23180,37749.51
1891,23192,37769.49
1892,23200,37789.46
1893,23212,37809.43
1894,23224,37829.41
1895,23236,37849.38
1896,23252,37869.35
1897,23252,37889.33
1898,23236,37909.30
1899,23184,37929.27
1900,23116,37949.25
1901,23060,37969.22
1902,23020,37989.19
1903,22996,38009.17
1904,22988,38029.14
1905,22996,38049.11
1906,23004,38069.09
1907,23028,38089.06
1908,23052,38109.03
1909,23080,38129.01
1910,23100,38148.98
1911,23116,38168.95
1912,23120,38188.93
1913,23124,38208.90
1914,23128,38228.87
1915,23132,38248.85
1916,23140,38268.82
1917,23152,38288.79
1918,23164,38308.77
1919,23180,38328.74
1920,23196,38348.71
1921,23216,38368.69
1922,23236,38388.66
1923,23260,38408.63
1924,23276,38428.61
1925,23288,38448.58
1926,23268,38468.55
1927,23224,38488.53
1928,23172,38508.50
1929,23116,38528.47
1930,23068,38548.45
1931,23040,38568.42
1932,23024,38588.39
1933,23024,38608.37
1934,23040,38628.34
1935,23060,38648.31
1936,23080,38668.29
1937,23104,38688.26
1938,23128,38708.23
1939,23144,38728.20
1940,23152,38748.18
1941,23148,38768.15
1942,23144,38788.12
1943,23136,38808.10
1944,23128,38828.07
1945,23132,38848.04
1946,23132,38868.02
1947,23144,38887.99
1948,23148,38907.96
1949,23160,38927.94
1950,23176,38947.91
1951,23192,38967.88
1952,23212,38987.86
1953,23216,39007.83
1954,23184,39027.80
1955,23136,39047.78
1956,23072,39067.75
1957,23024,39087.72
1958,22992,39107.70
1959,22976,39127.67
1960,22976,39147.64
1961,22992,39167.62
1962,23012,39187.59
1963,23040,39207.56
1964,23068,39227.54
1965,23104,39247.51
1966,23128,39267.48
1967,23144,39287.46
1968,23148,39307.43
1969,23148,39327.40
1970,23140,39347.38
1971,23144,39367.35
1972,23148,39387.32
1973,23160,39407.30
1974,23172,39427.27
1975,23188,39447.24
1976,23208,39467.22
1977,23220,39487.19
1978,23240,39507.16
1979,23256,39527.14
1980,23252,39547.11
1981,23224,39567.08
1982,23172,39587.06
1983,23108,39607.03
1984,23048,39627.00
1985,23004,39646.98
1986,22984,39666.95
1987,22980,39686.92
1988,22992,39706.90
1989,23012,39726.87
1990,23028,39746.84
1991,23052,39766.82
1992,23076,39786.79
1993,23096,39806.76
1994,23112,39826.74
1995,23116,39846.71
1996,23112,39866.68
1997,23108,39886.66
1998,23108,39906.63
1999,23108,39926.60
2000,23120,39946.58
2001,23128,39966.55
2002,23140,39986.52
2003,23152,40006.50
2004,23168,40026.47
2005,23184,40046.44
2006,23200,40066.42
2007,23204,40086.39
2008,23188,40106.36
2009,23140,40126.34
2010,23076,40146.31
2011,23016,40166.28
2012,22968,40186.25
2013,22944,40206.23
2014,22940,40226.20
2015,22952,40246.17
2016,22964,40266.15
2017,22988,40286.12
2018,23016,40306.09
2019,23048,40326.07
2020,23076,40346.04
2021,23092,40366.01
2022,23100,40385.99
2023,23100,40405.96
2024,23092,40425.93
2025,23084,40445.91
2026,23076,40465.88
2027,23080,40485.85
2028,23076,40505.83
2029,23084,40525.80
2030,23088,40545.77
2031,23096,40565.75
2032,23112,40585.72
2033,23128,40605.69
2034,23136,40625.67
2035,23132,40645.64
2036,23096,40665.61
2037,23036,40685.59
2038,22972,40705.56
2039,22916,40725.53
2040,22876,40745.51
2041,22848,40765.48
2042,22840,40785.45
2043,22840,40805.43
2044,22848,40825.40
2045,22852,40845.37
2046,22864,40865.35
2047,22880,40885.32
2048,22892,40905.29
2049,22892,40925.27
2050,22892,40945.24
2051,22888,40965.21
2052,22888,40985.19
2053,22892,41005.16
2054,22896,41025.13
2055,22904,41045.11
2056,22916,41065.08
2057,22940,41085.05
2058,22964,41105.03
2059,22996,41125.00
2060,23024,41144.97
2061,23044,41164.95
2062,23040,41184.92
2063,23008,41204.89
2064,22960,41224.87
2065,22908,41244.84
2066,22868,41264.81
2067,22848,41284.79
2068,22844,41304.76
2069,22856,41324.73
2070,22880,41344.71
2071,22904,41364.68
2072,22932,41384.65
2073,22960,41404.63
2074,22984,41424.60
2075,23000,41444.57
2076,23012,41464.55
2077,23008,41484.52
2078,23008,41504.49
2079,23008,41524.47
2080,23008,41544.44
2081,23004,41564.41
2082,23016,41584.39
2083,23020,41604.36
2084,23024,41624.33
2085,23036,41644.30
2086,23048,41664.28
2087,23064,41684.25
2088,23080,41704.22
2089,23080,41724.20
2090,23044,41744.17
2091,22984,41764.14
2092,22920,41784.12
2093,22860,41804.09
2094,22820,41824.06
2095,22808,41844.04
2096,22812,41864.01
2097,22828,41883.98
2098,22848,41903.96
2099,22872,41923.93
2100,22904,41943.90
2101,22924,41963.88
2102,22948,41983.85
2103,22956,42003.82
2104,22968,42023.80
2105,22980,42043.77
2106,22984,42063.74
2107,22992,42083.72
2108,23000,42103.69
2109,23012,42123.66
2110,23024,42143.64
2111,23044,42163.61
2112,23064,42183.58
2113,23080,42203.56
2114,23100,42223.53
2115,23120,42243.50
2116,23140,42263.48
2117,23144,42283.45
2118,23124,42303.42
2119,23072,42323.40
2120,23008,42343.37
2121,22944,42363.34
2122,22900,42383.32
2123,22876,42403.29
2124,22876,42423.26
2125,22880,42443.24
2126,22896,42463.21
2127,22928,42483.18
2128,22956,42503.16
2129,22980,42523.13
2130,22996,42543.10
2131,23004,42563.08
2132,23008,42583.05
2133,23008,42603.02
2134,23004,42623.00
2135,22996,42642.97
2136,22988,42662.94
2137,22976,42682.92
2138,22976,42702.89
2139,22976,42722.86
2140,22980,42742.84
2141,22984,42762.81
2142,22992,42782.78
2143,23004,42802.76
2144,23012,42822.73
2145,23008,42842.70
2146,22968,42862.68
2147,22908,42882.65
2148,22844,42902.62
2149,22788,42922.60
2150,22752,42942.57
2151,22740,42962.54
2152,22744,42982.52
2153,22764,43002.49
2154,22792,43022.46
2155,22824,43042.44
2156,22860,43062.41
2157,22888,43082.38
2158,22912,43102.35
2159,22928,43122.33
2160,22936,43142.30
2161,22936,43162.27
2162,22936,43182.25
2163,22932,43202.22
2164,22936,43222.19
2165,22948,43242.17
2166,22964,43262.14
2167,22976,43282.11
2168,22996,43302.09
2169,23008,43322.06
2170,23024,43342.03
2171,23044,43362.01
2172,23060,43381.98
2173,23060,43401.95
2174,23028,43421.93
2175,22964,43441.90
2176,22892,43461.87
2177,22824,43481.85
2178,22788,43501.82
2179,22772,43521.79
2180,22772,43541.77
2181,22788,43561.74
2182,22812,43581.71
2183,22836,43601.69
2184,22868,43621.66
2185,22896,43641.63
2186,22916,43661.61
2187,22928,43681.58
2188,22932,43701.55
2189,22932,43721.53
2190,22928,43741.50
2191,22928,43761.47
2192,22932,43781.45
2193,22940,43801.42
2194,22948,43821.39
2195,22960,43841.37
2196,22976,43861.34
2197,22988,43881.31
2198,23008,43901.29
2199,23028,43921.26
2200,23048,43941.23
2201,23056,43961.21
2202,23032,43981.18
2203,22980,44001.15
2204,22916,44021.13
2205,22856,44041.10
2206,22816,44061.07
2207,22800,44081.05
2208,22792,44101.02
2209,22808,44120.99
2210,22824,44140.97
2211,22848,44160.94
2212,22872,44180.91
2213,22896,44200.89
2214,22916,44220.86
2215,22928,44240.83
2216,22928,44260.81
2217,22928,44280.78
2218,22916,44300.75
2219,22908,44320.73
2220,22904,44340.70
2221,22896,44360.67
2222,22896,44380.65
2223,22900,44400.62
2224,22908,44420.59
2225,22920,44440.57
2226,22936,44460.54
2227,22948,44480.51
2228,22960,44500.49
2229,22972,44520.46
2230,22964,44540.43
2231,22924,44560.40
2232,22856,44580.38
2233,22772,44600.35
2234,22700,44620.32
2235,22656,44640.30
2236,22632,44660.27
2237,22628,44680.24
2238,22648,44700.22
2239,22668,44720.19
2240,22700,44740.16
2241,22740,44760.14
2242,22772,44780.11
2243,22800,44800.08
2244,22820,44820.06
2245,22840,44840.03
2246,22844,44860.00
2247,22844,44879.98
2248,22848,44899.95
2249,22856,44919.92
2250,22864,44939.90
2251,22876,44959.87
2252,22888,44979.84
2253,22912,44999.82
2254,22928,45019.79
2255,22948,45039.76
2256,22968,45059.74
2257,22988,45079.71
2258,22996,45099.68
2259,22968,45119.66
2260,22908,45139.63
2261,22832,45159.60
2262,22764,45179.58
2263,22716,45199.55
2264,22692,45219.52
2265,22696,45239.50
2266,22708,45259.47
2267,22732,45279.44
2268,22760,45299.42
2269,22796,45319.39
2270,22824,45339.36
2271,22856,45359.34
2272,22876,45379.31
2273,22884,45399.28
2274,22884,45419.26
2275,22888,45439.23
2276,22884,45459.20
2277,22884,45479.18
2278,22888,45499.15
2279,22892,45519.12
2280,22900,45539.10
2281,22912,45559.07
2282,22928,45579.04
2283,22948,45599.02
2284,22964,45618.99
2285,22988,45638.96
2286,23000,45658.94
2287,22992,45678.91
2288,22944,45698.88
2289,22876,45718.86
2290,22804,45738.83
2291,22748,45758.80
2292,22712,45778.78
2293,22704,45798.75
2294,22720,45818.72
2295,22744,45838.70
2296,22768,45858.67
2297,22796,45878.64
2298,22828,45898.62
2299,22856,45918.59
2300,22880,45938.56
2301,22892,45958.54
2302,22896,45978.51
2303,22896,45998.48
2304,22892,46018.45
2305,22892,46038.43
2306,22892,46058.40
2307,22892,46078.37
2308,22892,46098.35
2309,22892,46118.32
2310,22896,46138.29
2311,22904,46158.27
2312,22908,46178.24
2313,22916,46198.21
2314,22932,46218.19
2315,22932,46238.16
2316,22904,46258.13
2317,22836,46278.11
2318,22752,46298.08
2319,22668,46318.05
2320,22600,46338.03
2321,22568,46358.00
2322,22552,46377.97
2323,22556,46397.95
2324,22580,46417.92
2325,22612,46437.89
2326,22648,46457.87
2327,22688,46477.84
2328,22720,46497.81
2329,22744,46517.79
2330,22760,46537.76
2331,22764,46557.73
2332,22772,46577.71
2333,22780,46597.68
2334,22796,46617.65
2335,22808,46637.63
2336,22828,46657.60
2337,22848,46677.57
2338,22876,46697.55
2339,22904,46717.52
2340,22932,46737.49
2341,22964,46757.47
2342,22988,46777.44
2343,22988,46797.41
2344,22956,46817.39
2345,22892,46837.36
2346,22828,46857.33
2347,22776,46877.31
2348,22752,46897.28
2349,22748,46917.25
2350,22764,46937.23
2351,22784,46957.20
2352,22820,46977.17
2353,22852,46997.15
2354,22880,47017.12
2355,22908,47037.09
2356,22924,47057.07
2357,22936,47077.04
2358,22932,47097.01
2359,22924,47116.99
2360,22920,47136.96
2361,22912,47156.93
2362,22912,47176.91
2363,22916,47196.88
2364,22920,47216.85
2365,22932,47236.83
2366,22948,47256.80
2367,22964,47276.77
2368,22976,47296.75
2369,22992,47316.72
2370,23004,47336.69
2371,22988,47356.67
2372,22936,47376.64
2373,22864,47396.61
2374,22792,47416.59
2375,22736,47436.56
2376,22708,47456.53
2377,22704,47476.50
2378,22720,47496.48
2379,22748,47516.45
2380,22784,47536.42
2381,22824,47556.40
2382,22868,47576.37
2383,22908,47596.34
2384,22944,47616.32
2385,22964,47636.29
2386,22972,47656.26
2387,22972,47676.24
2388,22972,47696.21
2389,22972,47716.18
2390,22976,47736.16
2391,22984,47756.13
2392,22996,47776.10
2393,23008,47796.08
2394,23024,47816.05
2395,23044,47836.02
2396,23064,47856.00
2397,23080,47875.97
2398,23096,47895.94
2399,23088,47915.92
2400,23048,47935.89
2401,22976,47955.86
2402,22900,47975.84
2403,22836,47995.81
2404,22792,48015.78
2405,22780,48035.76
2406,22788,48055.73
2407,22808,48075.70
2408,22828,48095.68
2409,22864,48115.65
2410,22888,48135.62
2411,22908,48155.60
2412,22916,48175.57
2413,22924,48195.54
2414,22920,48215.52
2415,22912,48235.49
2416,22904,48255.46
2417,22904,48275.44
2418,22908,48295.41
2419,22920,48315.38
2420,22940,48335.36
2421,22968,48355.33
2422,22992,48375.30
2423,23020,48395.28
2424,23056,48415.25
2425,23084,48435.22
2426,23084,48455.20
2427,23040,48475.17
2428,22972,48495.14
2429,22896,48515.12
2430,22844,48535.09
2431,22816,48555.06
2432,22820,48575.04
2433,22836,48595.01
2434,22864,48614.98
2435,22904,48634.96
2436,22940,48654.93
2437,22976,48674.90
2438,23004,48694.88
2439,23024,48714.85
2440,23032,48734.82
2441,23024,48754.80
2442,23020,48774.77
2443,23012,48794.74
2444,23004,48814.72
2445,23004,48834.69
2446,23008,48854.66
2447,23016,48874.64
2448,23028,48894.61
2449,23036,48914.58
2450,23052,48934.55
2451,23068,48954.53
2452,23084,48974.50
2453,23084,48994.47
2454,23036,49014.45
2455,22960,49034.42
2456,22868,49054.39
2457,22792,49074.37
2458,22748,49094.34
2459,22728,49114.31
2460,22736,49134.29
2461,22752,49154.26
2462,22780,49174.23
2463,22816,49194.21
2464,22848,49214.18
2465,22884,49234.15
2466,22916,49254.13
2467,22936,49274.10
2468,22952,49294.07
2469,22952,49314.05
2470,22944,49334.02
2471,22944,49353.99
2472,22944,49373.97
2473,22940,49393.94
2474,22944,49413.91
2475,22948,49433.89
2476,22952,49453.86
2477,22964,49473.83
2478,22976,49493.81
2479,22992,49513.78
2480,23008,49533.75
2481,22992,49553.73
2482,22940,49573.70
2483,22860,49593.67
2484,22780,49613.65
2485,22708,49633.62
2486,22664,49653.59
2487,22652,49673.57
2488,22660,49693.54
2489,22680,49713.51
2490,22704,49733.49
2491,22732,49753.46
2492,22760,49773.43
2493,22788,49793.41
2494,22804,49813.38
2495,22808,49833.35
2496,22800,49853.33
2497,22780,49873.30
2498,22772,49893.27
2499,22752,49913.25
2500,22740,49933.22
2501,22740,49953.19
2502,22744,49973.17
2503,22756,49993.14
2504,22776,50013.11
2505,22796,50033.09
2506,22824,50053.06
2507,22844,50073.03
2508,22836,50093.01
2509,22784,50112.98
2510,22716,50132.95
2511,22648,50152.93
2512,22608,50172.90
2513,22588,50192.87
2514,22596,50212.85
2515,22612,50232.82
2516,22644,50252.79
2517,22680,50272.77
2518,22720,50292.74
2519,22756,50312.71
2520,22784,50332.69
2521,22804,50352.66
2522,22808,50372.63
2523,22804,50392.60
2524,22792,50412.58
2525,22792,50432.55
2526,22792,50452.52
2527,22796,50472.50
2528,22804,50492.47
2529,22812,50512.44
2530,22820,50532.42
2531,22840,50552.39
2532,22852,50572.36
2533,22868,50592.34
2534,22876,50612.31
2535,22852,50632.28
2536,22788,50652.26
2537,22712,50672.23
2538,22636,50692.20
2539,22588,50712.18
2540,22568,50732.15
2541,22572,50752.12
2542,22588,50772.10
2543,22620,50792.07
2544,22652,50812.04
2545,22688,50832.02
2546,22720,50851.99
2547,22744,50871.96
2548,22760,50891.94
2549,22768,50911.91
2550,22764,50931.88
2551,22760,50951.86
2552,22756,50971.83
2553,22760,50991.80
2554,22768,51011.78
2555,22780,51031.75
2556,22796,51051.72
2557,22808,51071.70
2558,22824,51091.67
2559,22840,51111.64
2560,22860,51131.62
2561,22872,51151.59
2562,22860,51171.56
2563,22812,51191.54
2564,22732,51211.51
2565,22648,51231.48
2566,22592,51251.46
2567,22564,51271.43
2568,22556,51291.40
2569,22568,51311.38
2570,22588,51331.35
2571,22616,51351.32
2572,22644,51371.30
2573,22672,51391.27
2574,22692,51411.24
2575,22700,51431.22
2576,22700,51451.19
2577,22688,51471.16
2578,22676,51491.14
2579,22664,51511.11
2580,22648,51531.08
2581,22640,51551.06
2582,22636,51571.03
2583,22632,51591.00
2584,22640,51610.98
2585,22644,51630.95
2586,22660,51650.92
2587,22676,51670.90
2588,22688,51690.87
2589,22676,51710.84
2590,22628,51730.82
2591,22560,51750.79
2592,22500,51770.76
2593,22456,51790.74
2594,22444,51810.71
2595,22452,51830.68
2596,22480,51850.65
2597,22520,51870.63
2598,22564,51890.60
2599,22612,51910.57
2600,22652,51930.55
2601,22680,51950.52
2602,22704,51970.49
2603,22712,51990.47
2604,22712,52010.44
2605,22708,52030.41
2606,22708,52050.39
2607,22708,52070.36
2608,22716,52090.33
2609,22728,52110.31
2610,22736,52130.28
2611,22744,52150.25
2612,22760,52170.23
2613,22772,52190.20
2614,22792,52210.17
2615,22796,52230.15
2616,22768,52250.12
2617,22704,52270.09
2618,22620,52290.07
2619,22544,52310.04
2620,22496,52330.01
2621,22480,52349.99
2622,22484,52369.96
2623,22504,52389.93
2624,22532,52409.91
2625,22568,52429.88
2626,22608,52449.85
2627,22632,52469.83
2628,22660,52489.80
2629,22676,52509.77
2630,22680,52529.75
2631,22680,52549.72
2632,22676,52569.69
2633,22676,52589.67
2634,22680,52609.64
2635,22688,52629.61
2636,22700,52649.59
2637,22716,52669.56
2638,22732,52689.53
2639,22748,52709.51
2640,22764,52729.48
2641,22776,52749.45
2642,22784,52769.43
2643,22780,52789.40
2644,22728,52809.37
2645,22660,52829.35
2646,22576,52849.32
2647,22516,52869.29
2648,22484,52889.27
2649,22476,52909.24
2650,22492,52929.21
2651,22520,52949.19
2652,22556,52969.16
2653,22592,52989.13
2654,22628,53009.11
2655,22664,53029.08
2656,22680,53049.05
2657,22684,53069.03
2658,22680,53089.00
2659,22676,53108.97
2660,22668,53128.95
2661,22664,53148.92
2662,22668,53168.89
2663,22672,53188.87
2664,22676,53208.84
2665,22688,53228.81
2666,22704,53248.79
2667,22716,53268.76
2668,22732,53288.73
2669,22748,53308.70
2670,22748,53328.68
2671,22704,53348.65
2672,22628,53368.62
2673,22544,53388.60
2674,22480,53408.57
2675,22452,53428.54
2676,22448,53448.52
2677,22468,53468.49
2678,22488,53488.46
2679,22524,53508.44
2680,22560,53528.41
2681,22596,53548.38
2682,22628,53568.36
2683,22648,53588.33
2684,22660,53608.30
2685,22664,53628.28
2686,22660,53648.25
2687,22656,53668.22
2688,22660,53688.20
2689,22668,53708.17
2690,22676,53728.14
2691,22692,53748.12
2692,22712,53768.09
2693,22732,53788.06
2694,22748,53808.04
2695,22772,53828.01
2696,22796,53847.98
2697,22804,53867.96
2698,22772,53887.93
2699,22704,53907.90
2700,22624,53927.88
2701,22552,53947.85
2702,22508,53967.82
2703,22500,53987.80
2704,22512,54007.77
2705,22536,54027.74
2706,22572,54047.72
2707,22608,54067.69
2708,22648,54087.66
2709,22684,54107.64
2710,22704,54127.61
2711,22716,54147.58
2712,22720,54167.56
2713,22720,54187.53
2714,22724,54207.50
2715,22724,54227.48
2716,22732,54247.45
2717,22744,54267.42
2718,22756,54287.40
2719,22776,54307.37
2720,22796,54327.34
2721,22820,54347.32
2722,22848,54367.29
2723,22868,54387.26
2724,22892,54407.24
2725,22892,54427.21
2726,22852,54447.18
2727,22780,54467.16
2728,22708,54487.13
2729,22648,54507.10
2730,22616,54527.08
2731,22612,54547.05
2732,22620,54567.02
2733,22644,54587.00
2734,22668,54606.97
2735,22696,54626.94
2736,22728,54646.92
2737,22764,54666.89
2738,22792,54686.86
2739,22808,54706.84
2740,22812,54726.81
2741,22804,54746.78
2742,22796,54766.75
2743,22796,54786.73
2744,22792,54806.70
2745,22796,54826.67
2746,22800,54846.65
2747,22812,54866.62
2748,22824,54886.59
2749,22840,54906.57
2750,22856,54926.54
2751,22872,54946.51
2752,22880,54966.49
2753,22856,54986.46
2754,22792,55006.43
2755,22708,55026.41
2756,22632,55046.38
2757,22576,55066.35
2758,22552,55086.33
2759,22552,55106.30
2760,22556,55126.27
2761,22584,55146.25
2762,22620,55166.22
2763,22668,55186.19
2764,22712,55206.17
2765,22744,55226.14
2766,22764,55246.11
2767,22784,55266.09
2768,22796,55286.06
2769,22808,55306.03
2770,22812,55326.01
2771,22824,55345.98
2772,22832,55365.95
2773,22852,55385.93
2774,22876,55405.90
2775,22904,55425.87
2776,22932,55445.85
2777,22960,55465.82
2778,22992,55485.79
2779,23008,55505.77
2780,22992,55525.74
2781,22940,55545.71
2782,22864,55565.69
2783,22796,55585.66
2784,22752,55605.63
2785,22728,55625.61
2786,22736,55645.58
2787,22752,55665.55
2788,22784,55685.53
2789,22820,55705.50
2790,22856,55725.47
2791,22888,55745.45
2792,22916,55765.42
2793,22932,55785.39
2794,22940,55805.37
2795,22948,55825.34
2796,22948,55845.31
2797,22952,55865.29
2798,22956,55885.26
2799,22964,55905.23
2800,22972,55925.21
2801,22984,55945.18
2802,23000,55965.15
2803,23020,55985.13
2804,23040,56005.10
2805,23060,56025.07
2806,23080,56045.05
2807,23080,56065.02
2808,23036,56084.99
2809,22968,56104.97
2810,22904,56124.94
2811,22848,56144.91
2812,22820,56164.89
2813,22812,56184.86
2814,22828,56204.83
2815,22852,56224.80
2816,22888,56244.78
2817,22928,56264.75
2818,22968,56284.72
2819,23004,56304.70
2820,23024,56324.67
2821,23044,56344.64
2822,23056,56364.62
2823,23060,56384.59
2824,23064,56404.56
2825,23064,56424.54
2826,23068,56444.51
2827,23072,56464.48
2828,23080,56484.46
2829,23084,56504.43
2830,23088,56524.40
2831,23088,56544.38
2832,23100,56564.35
2833,23112,56584.32
2834,23108,56604.30
2835,23076,56624.27
2836,23012,56644.24
2837,22928,56664.22
2838,22848,56684.19
2839,22784,56704.16
2840,22752,56724.14
2841,22740,56744.11
2842,22748,56764.08
2843,22768,56784.06
2844,22796,56804.03
2845,22828,56824.00
2846,22852,56843.98
2847,22876,56863.95
2848,22892,56883.92
2849,22900,56903.90
2850,22908,56923.87
2851,22912,56943.84
2852,22920,56963.82
2853,22932,56983.79
2854,22944,57003.76
2855,22968,57023.74
2856,22988,57043.71
2857,23012,57063.68
2858,23036,57083.66
2859,23064,57103.63
2860,23092,57123.60
2861,23104,57143.58
2862,23080,57163.55
2863,23028,57183.52
2864,22960,57203.50
2865,22896,57223.47
2866,22852,57243.44
2867,22836,57263.42
2868,22844,57283.39
2869,22864,57303.36
2870,22888,57323.34
2871,22920,57343.31
2872,22956,57363.28
2873,22988,57383.26
2874,23012,57403.23
2875,23028,57423.20
2876,23036,57443.18
2877,23036,57463.15
2878,23036,57483.12
2879,23032,57503.10
2880,23032,57523.07
2881,23040,57543.04
2882,23040,57563.02
2883,23044,57582.99
2884,23060,57602.96
2885,23076,57622.94
2886,23096,57642.91
2887,23116,57662.88
2888,23124,57682.85
2889,23100,57702.83
2890,23044,57722.80
2891,22976,57742.77
2892,22904,57762.75
2893,22848,57782.72
2894,22820,57802.69
2895,22816,57822.67
2896,22828,57842.64
2897,22856,57862.61
2898,22888,57882.59
2899,22924,57902.56
2900,22960,57922.53
2901,22996,57942.51
2902,23020,57962.48
2903,23032,57982.45
2904,23036,58002.43
2905,23036,58022.40
2906,23040,58042.37
2907,23036,58062.35
2908,23040,58082.32
2909,23044,58102.29
2910,23056,58122.27
2911,23072,58142.24
2912,23084,58162.21
2913,23096,58182.19
2914,23112,58202.16
2915,23132,58222.13
2916,23120,58242.11
2917,23076,58262.08
2918,23004,58282.05
2919,22920,58302.03
2920,22848,58322.00
2921,22800,58341.97
2922,22776,58361.95
2923,22768,58381.92
2924,22764,58401.89
2925,22768,58421.87
2926,22788,58441.84
2927,22808,58461.81
2928,22828,58481.79
2929,22844,58501.76
2930,22840,58521.73
2931,22832,58541.71
2932,22812,58561.68
2933,22812,58581.65
2934,22808,58601.63
2935,22812,58621.60
2936,22820,58641.57
2937,22836,58661.55
2938,22856,58681.52
2939,22880,58701.49
2940,22904,58721.47
2941,22928,58741.44
2942,22936,58761.41
2943,22912,58781.39
2944,22856,58801.36
2945,22796,58821.33
2946,22740,58841.31
2947,22712,58861.28
2948,22708,58881.25
2949,22728,58901.23
2950,22756,58921.20
2951,22788,58941.17
2952,22824,58961.15
2953,22864,58981.12
2954,22896,59001.09
2955,22916,59021.07
2956,22928,59041.04
2957,22932,59061.01
2958,22928,59080.99
2959,22920,59100.96
2960,22916,59120.93
2961,22916,59140.90
2962,22916,59160.88
2963,22924,59180.85
2964,22932,59200.82
2965,22948,59220.80
2966,22968,59240.77
2967,22980,59260.74
2968,22984,59280.72
2969,22956,59300.69
2970,22896,59320.66
2971,22828,59340.64
2972,22764,59360.61
2973,22720,59380.58
2974,22704,59400.56
2975,22716,59420.53
2976,22732,59440.50
2977,22768,59460.48
2978,22800,59480.45
2979,22844,59500.42
2980,22880,59520.40
2981,22912,59540.37
2982,22928,59560.34
2983,22940,59580.32
2984,22952,59600.29
2985,22956,59620.26
2986,22968,59640.24
2987,22980,59660.21
2988,22992,59680.18
2989,23004,59700.16
2990,23020,59720.13
2991,23036,59740.10
2992,23056,59760.08
2993,23072,59780.05
2994,23088,59800.02
2995,23080,59820.00
2996,23052,59839.97
2997,23004,59859.94
2998,22948,59879.92
2999,22896,59899.89
