Sample_Index,IR_Value,Timestamp_ms
0,18968,0.00
1,19316,19.97
2,19580,39.95
3,19604,59.92
4,19440,79.90
5,19280,99.87
6,19532,119.85
7,20084,139.82
8,20696,159.80
9,21376,179.77
10,22040,199.75
11,22616,219.72
12,23080,239.70
13,23396,259.67
14,23616,279.64
15,23792,299.62
16,23924,319.59
17,24016,339.57
18,24088,359.54
19,24140,379.52
20,24180,399.49
21,24212,419.47
22,24232,439.44
23,24240,459.42
24,24220,479.39
25,24156,499.37
26,24060,519.34
27,23928,539.31
28,23780,559.29
29,23676,579.26
30,23592,599.24
31,23500,619.21
32,23416,639.19
33,23324,659.16
34,23180,679.14
35,22984,699.11
36,22764,719.09
37,22560,739.06
38,22412,759.04
39,22320,779.01
40,22276,798.98
41,22264,818.96
42,22260,838.93
43,22280,858.91
44,22300,878.88
45,22316,898.86
46,22324,918.83
47,22328,938.81
48,22320,958.78
49,22316,978.76
50,22316,998.73
51,22324,1018.71
52,22324,1038.68
53,22324,1058.65
54,22332,1078.63
55,22348,1098.60
56,22372,1118.58
57,22396,1138.55
58,22420,1158.53
59,22444,1178.50
60,22468,1198.48
61,22496,1218.45
62,22516,1238.43
63,22544,1258.40
64,22556,1278.38
65,22568,1298.35
66,22580,1318.32
67,22600,1338.30
68,22620,1358.27
69,22636,1378.25
70,22644,1398.22
71,22664,1418.20
72,22676,1438.17
73,22692,1458.15
74,22704,1478.12
75,22720,1498.10
76,22696,1518.07
77,22604,1538.05
78,22488,1558.02
79,22352,1577.99
80,22252,1597.97
81,22212,1617.94
82,22212,1637.92
83,22236,1657.89
84,22260,1677.87
85,22272,1697.84
86,22300,1717.82
87,22328,1737.79
88,22360,1757.77
89,22384,1777.74
90,22388,1797.72
91,22384,1817.69
92,22388,1837.67
93,22392,1857.64
94,22404,1877.61
95,22412,1897.59
96,22432,1917.56
97,22448,1937.54
98,22468,1957.51
99,22488,1977.49
100,22516,1997.46
101,22532,2017.44
102,22552,2037.41
103,22568,2057.39
104,22596,2077.36
105,22620,2097.34
106,22644,2117.31
107,22664,2137.28
108,22684,2157.26
109,22700,2177.23
110,22716,2197.21
111,22728,2217.18
112,22740,2237.16
113,22756,2257.13
114,22768,2277.11
115,22788,2297.08
116,22800,2317.06
117,22820,2337.03
118,22808,2357.01
119,22732,2376.98
120,22608,2396.95
121,22472,2416.93
122,22356,2436.90
123,22288,2456.88
124,22280,2476.85
125,22296,2496.83
126,22324,2516.80
127,22352,2536.78
128,22392,2556.75
129,22428,2576.73
130,22464,2596.70
131,22484,2616.68
132,22496,2636.65
133,22492,2656.62
134,22484,2676.60
135,22476,2696.57
136,22480,2716.55
137,22484,2736.52
138,22492,2756.50
139,22500,2776.47
140,22520,2796.45
141,22540,2816.42
142,22568,2836.40
143,22592,2856.37
144,22612,2876.35
145,22628,2896.32
146,22640,2916.29
147,22656,2936.27
148,22672,2956.24
149,22692,2976.22
150,22712,2996.19
151,22720,3016.17
152,22732,3036.14
153,22740,3056.12
154,22752,3076.09
155,22768,3096.07
156,22776,3116.04
157,22792,3136.02
158,22804,3155.99
159,22780,3175.96
160,22704,3195.94
161,22588,3215.91
162,22464,3235.89
163,22364,3255.86
164,22308,3275.84
165,22292,3295.81
166,22304,3315.79
167,22336,3335.76
168,22372,3355.74
169,22412,3375.71
170,22452,3395.69
171,22484,3415.66
172,22504,3435.63
173,22512,3455.61
174,22504,3475.58
175,22492,3495.56
176,22480,3515.53
177,22468,3535.51
178,22464,3555.48
179,22468,3575.46
180,22484,3595.43
181,22500,3615.41
182,22516,3635.38
183,22532,3655.36
184,22544,3675.33
185,22560,3695.30
186,22576,3715.28
187,22596,3735.25
188,22604,3755.23
189,22616,3775.20
190,22620,3795.18
191,22632,3815.15
192,22636,3835.13
193,22648,3855.10
194,22660,3875.08
195,22648,3895.05
196,22588,3915.03
197,22484,3935.00
198,22368,3954.97
199,22276,3974.95
200,22220,3994.92
201,22192,4014.90
202,22196,4034.87
203,22228,4054.85
204,22268,4074.82
205,22304,4094.80
206,22344,4114.77
207,22376,4134.75
208,22384,4154.72
209,22392,4174.70
210,22388,4194.67
211,22372,4214.64
212,22352,4234.62
213,22328,4254.59
214,22312,4274.57
215,22308,4294.54
216,22308,4314.52
217,22316,4334.49
218,22360,4354.47
219,22464,4374.44
220,22596,4394.42
221,22684,4414.39
222,22756,4434.37
223,22828,4454.34
224,22892,4474.31
225,22932,4494.29
226,22948,4514.26
227,22900,4534.24
228,22784,4554.21
229,22644,4574.19
230,22520,4594.16
231,22436,4614.14
232,22404,4634.11
233,22380,4654.09
234,22356,4674.06
235,22360,4694.04
236,22396,4714.01
237,22444,4733.98
238,22480,4753.96
239,22504,4773.93
240,22504,4793.91
241,22496,4813.88
242,22480,4833.86
243,22468,4853.83
244,22456,4873.81
245,22460,4893.78
246,22472,4913.76
247,22484,4933.73
248,22500,4953.71
249,22512,4973.68
250,22528,4993.66
251,22544,5013.63
252,22568,5033.60
253,22592,5053.58
254,22600,5073.55
255,22596,5093.53
256,22544,5113.50
257,22436,5133.48
258,22308,5153.45
259,22176,5173.43
260,22084,5193.40
261,22028,5213.38
262,22012,5233.35
263,22024,5253.33
264,22048,5273.30
265,22076,5293.27
266,22112,5313.25
267,22148,5333.22
268,22176,5353.20
269,22188,5373.17
270,22196,5393.15
271,22200,5413.12
272,22200,5433.10
273,22196,5453.07
274,22200,5473.05
275,22220,5493.02
276,22240,5513.00
277,22276,5532.97
278,22316,5552.94
279,22372,5572.92
280,22416,5592.89
281,22456,5612.87
282,22492,5632.84
283,22536,5652.82
284,22576,5672.79
285,22580,5692.77
286,22520,5712.74
287,22424,5732.72
288,22316,5752.69
289,22244,5772.67
290,22212,5792.64
291,22212,5812.61
292,22236,5832.59
293,22272,5852.56
294,22312,5872.54
295,22356,5892.51
296,22400,5912.49
297,22440,5932.46
298,22468,5952.44
299,22480,5972.41
300,22484,5992.39
301,22492,6012.36
302,22488,6032.34
303,22492,6052.31
304,22508,6072.28
305,22532,6092.26
306,22556,6112.23
307,22584,6132.21
308,22616,6152.18
309,22648,6172.16
310,22680,6192.13
311,22716,6212.11
312,22740,6232.08
313,22768,6252.06
314,22804,6272.03
315,22824,6292.01
316,22796,6311.98
317,22712,6331.95
318,22604,6351.93
319,22504,6371.90
320,22448,6391.88
321,22436,6411.85
322,22448,6431.83
323,22484,6451.80
324,22528,6471.78
325,22580,6491.75
326,22628,6511.73
327,22672,6531.70
328,22696,6551.68
329,22704,6571.65
330,22704,6591.62
331,22704,6611.60
332,22708,6631.57
333,22716,6651.55
334,22732,6671.52
335,22748,6691.50
336,22768,6711.47
337,22808,6731.45
338,22844,6751.42
339,22876,6771.40
340,22908,6791.37
341,22936,6811.35
342,22960,6831.32
343,22992,6851.29
344,23016,6871.27
345,23040,6891.24
346,23060,6911.22
347,23076,6931.19
348,23080,6951.17
349,23096,6971.14
350,23100,6991.12
351,23068,7011.09
352,22992,7031.07
353,22884,7051.04
354,22772,7071.02
355,22680,7090.99
356,22632,7110.96
357,22624,7130.94
358,22640,7150.91
359,22672,7170.89
360,22704,7190.86
361,22736,7210.84
362,22772,7230.81
363,22800,7250.79
364,22820,7270.76
365,22832,7290.74
366,22836,7310.71
367,22832,7330.69
368,22836,7350.66
369,22844,7370.63
370,22864,7390.61
371,22888,7410.58
372,22916,7430.56
373,22940,7450.53
374,22964,7470.51
375,22992,7490.48
376,23028,7510.46
377,23060,7530.43
378,23088,7550.41
379,23120,7570.38
380,23152,7590.36
381,23180,7610.33
382,23208,7630.30
383,23228,7650.28
384,23248,7670.25
385,23272,7690.23
386,23300,7710.20
387,23316,7730.18
388,23300,7750.15
389,23244,7770.13
390,23164,7790.10
391,23080,7810.08
392,23016,7830.05
393,22980,7850.03
394,22964,7870.00
395,22972,7889.97
396,23004,7909.95
397,23044,7929.92
398,23076,7949.90
399,23104,7969.87
400,23124,7989.85
401,23164,8009.82
402,23192,8029.80
403,23220,8049.77
404,23248,8069.75
405,23268,8089.72
406,23288,8109.70
407,23316,8129.67
408,23336,8149.65
409,23364,8169.62
410,23392,8189.59
411,23428,8209.57
412,23456,8229.54
413,23484,8249.52
414,23516,8269.49
415,23544,8289.47
416,23576,8309.44
417,23604,8329.42
418,23640,8349.39
419,23672,8369.37
420,23704,8389.34
421,23740,8409.32
422,23760,8429.29
423,23748,8449.26
424,23696,8469.24
425,23624,8489.21
426,23540,8509.19
427,23472,8529.16
428,23432,8549.14
429,23420,8569.11
430,23428,8589.09
431,23444,8609.06
432,23464,8629.04
433,23488,8649.01
434,23512,8668.99
435,23528,8688.96
436,23536,8708.93
437,23528,8728.91
438,23516,8748.88
439,23508,8768.86
440,23508,8788.83
441,23520,8808.81
442,23536,8828.78
443,23548,8848.76
444,23564,8868.73
445,23580,8888.71
446,23592,8908.68
447,23608,8928.66
448,23624,8948.63
449,23636,8968.60
450,23652,8988.58
451,23664,9008.55
452,23680,9028.53
453,23696,9048.50
454,23712,9068.48
455,23728,9088.45
456,23740,9108.43
457,23720,9128.40
458,23656,9148.38
459,23560,9168.35
460,23452,9188.33
461,23360,9208.30
462,23300,9228.27
463,23280,9248.25
464,23288,9268.22
465,23308,9288.20
466,23336,9308.17
467,23376,9328.15
468,23412,9348.12
469,23436,9368.10
470,23456,9388.07
471,23464,9408.05
472,23472,9428.02
473,23476,9448.00
474,23480,9467.97
475,23488,9487.94
476,23504,9507.92
477,23524,9527.89
478,23548,9547.87
479,23568,9567.84
480,23596,9587.82
481,23616,9607.79
482,23632,9627.77
483,23660,9647.74
484,23688,9667.72
485,23712,9687.69
486,23744,9707.67
487,23764,9727.64
488,23788,9747.61
489,23804,9767.59
490,23824,9787.56
491,23844,9807.54
492,23864,9827.51
493,23880,9847.49
494,23896,9867.46
495,23880,9887.44
496,23812,9907.41
497,23700,9927.39
498,23576,9947.36
499,23444,9967.34
500,23356,9987.31
501,23312,10007.28
502,23296,10027.26
503,23304,10047.23
504,23320,10067.21
505,23348,10087.18
506,23384,10107.16
507,23416,10127.13
508,23436,10147.11
509,23444,10167.08
510,23448,10187.06
511,23452,10207.03
512,23460,10227.01
513,23464,10246.98
514,23476,10266.95
515,23492,10286.93
516,23508,10306.90
517,23532,10326.88
518,23552,10346.85
519,23576,10366.83
520,23600,10386.80
521,23620,10406.78
522,23640,10426.75
523,23664,10446.73
524,23684,10466.70
525,23700,10486.68
526,23720,10506.65
527,23732,10526.62
528,23748,10546.60
529,23768,10566.57
530,23784,10586.55
531,23800,10606.52
532,23820,10626.50
533,23836,10646.47
534,23856,10666.45
535,23872,10686.42
536,23876,10706.40
537,23828,10726.37
538,23728,10746.35
539,23596,10766.32
540,23452,10786.29
541,23332,10806.27
542,23264,10826.24
543,23240,10846.22
544,23252,10866.19
545,23272,10886.17
546,23304,10906.14
547,23336,10926.12
548,23372,10946.09
549,23396,10966.07
550,23416,10986.04
551,23428,11006.02
552,23436,11025.99
553,23436,11045.96
554,23440,11065.94
555,23444,11085.91
556,23456,11105.89
557,23468,11125.86
558,23488,11145.84
559,23512,11165.81
560,23536,11185.79
561,23560,11205.76
562,23584,11225.74
563,23608,11245.71
564,23632,11265.69
565,23652,11285.66
566,23672,11305.64
567,23696,11325.61
568,23716,11345.58
569,23736,11365.56
570,23760,11385.53
571,23780,11405.51
572,23800,11425.48
573,23816,11445.46
574,23832,11465.43
575,23852,11485.41
576,23872,11505.38
577,23888,11525.36
578,23904,11545.33
579,23872,11565.31
580,23792,11585.28
581,23660,11605.25
582,23512,11625.23
583,23376,11645.20
584,23288,11665.18
585,23248,11685.15
586,23240,11705.13
587,23260,11725.10
588,23296,11745.08
589,23336,11765.05
590,23376,11785.03
591,23408,11805.00
592,23428,11824.98
593,23436,11844.95
594,23440,11864.92
595,23432,11884.90
596,23424,11904.87
597,23428,11924.85
598,23436,11944.82
599,23448,11964.80
600,23472,11984.77
601,23492,12004.75
602,23516,12024.72
603,23544,12044.70
604,23564,12064.67
605,23588,12084.65
606,23612,12104.62
607,23640,12124.59
608,23656,12144.57
609,23680,12164.54
610,23700,12184.52
611,23720,12204.49
612,23740,12224.47
613,23756,12244.44
614,23768,12264.42
615,23784,12284.39
616,23800,12304.37
617,23816,12324.34
618,23836,12344.32
619,23852,12364.29
620,23828,12384.26
621,23760,12404.24
622,23640,12424.21
623,23500,12444.19
624,23376,12464.16
625,23292,12484.14
626,23256,12504.11
627,23264,12524.09
628,23284,12544.06
629,23320,12564.04
630,23360,12584.01
631,23396,12603.99
632,23428,12623.96
633,23448,12643.93
634,23452,12663.91
635,23444,12683.88
636,23428,12703.86
637,23416,12723.83
638,23416,12743.81
639,23420,12763.78
640,23432,12783.76
641,23444,12803.73
642,23464,12823.71
643,23484,12843.68
644,23504,12863.66
645,23528,12883.63
646,23556,12903.60
647,23580,12923.58
648,23604,12943.55
649,23636,12963.53
650,23664,12983.50
651,23684,13003.48
652,23696,13023.45
653,23720,13043.43
654,23736,13063.40
655,23756,13083.38
656,23760,13103.35
657,23716,13123.33
658,23616,13143.30
659,23476,13163.27
660,23336,13183.25
661,23232,13203.22
662,23176,13223.20
663,23160,13243.17
664,23180,13263.15
665,23216,13283.12
666,23256,13303.10
667,23304,13323.07
668,23348,13343.05
669,23384,13363.02
670,23396,13383.00
671,23392,13402.97
672,23380,13422.94
673,23364,13442.92
674,23356,13462.89
675,23348,13482.87
676,23348,13502.84
677,23360,13522.82
678,23376,13542.79
679,23400,13562.77
680,23428,13582.74
681,23452,13602.72
682,23476,13622.69
683,23500,13642.67
684,23520,13662.64
685,23528,13682.61
686,23536,13702.59
687,23548,13722.56
688,23556,13742.54
689,23568,13762.51
690,23540,13782.49
691,23460,13802.46
692,23332,13822.44
693,23184,13842.41
694,23068,13862.39
695,23000,13882.36
696,22992,13902.34
697,23012,13922.31
698,23048,13942.28
699,23092,13962.26
700,23148,13982.23
701,23192,14002.21
702,23232,14022.18
703,23256,14042.16
704,23268,14062.13
705,23264,14082.11
706,23252,14102.08
707,23240,14122.06
708,23240,14142.03
709,23244,14162.01
710,23260,14181.98
711,23280,14201.95
712,23308,14221.93
713,23332,14241.90
714,23360,14261.88
715,23392,14281.85
716,23420,14301.83
717,23452,14321.80
718,23476,14341.78
719,23504,14361.75
720,23524,14381.73
721,23544,14401.70
722,23568,14421.68
723,23572,14441.65
724,23536,14461.63
725,23440,14481.60
726,23292,14501.57
727,23140,14521.55
728,23028,14541.52
729,22980,14561.50
730,22976,14581.47
731,23004,14601.45
732,23048,14621.42
733,23088,14641.40
734,23136,14661.37
735,23180,14681.35
736,23212,14701.32
737,23236,14721.30
738,23244,14741.27
739,23252,14761.24
740,23252,14781.22
741,23248,14801.19
742,23256,14821.17
743,23264,14841.14
744,23284,14861.12
745,23308,14881.09
746,23340,14901.07
747,23364,14921.04
748,23392,14941.02
749,23420,14960.99
750,23440,14980.97
751,23460,15000.94
752,23484,15020.91
753,23496,15040.89
754,23512,15060.86
755,23528,15080.84
756,23544,15100.81
757,23564,15120.79
758,23572,15140.76
759,23524,15160.74
760,23428,15180.71
761,23280,15200.69
762,23128,15220.66
763,23020,15240.64
764,22968,15260.61
765,22960,15280.58
766,22988,15300.56
767,23028,15320.53
768,23068,15340.51
769,23116,15360.48
770,23160,15380.46
771,23196,15400.43
772,23216,15420.41
773,23228,15440.38
774,23232,15460.36
775,23236,15480.33
776,23244,15500.31
777,23248,15520.28
778,23260,15540.25
779,23284,15560.23
780,23312,15580.20
781,23336,15600.18
782,23356,15620.15
783,23380,15640.13
784,23404,15660.10
785,23424,15680.08
786,23452,15700.05
787,23468,15720.03
788,23492,15740.00
789,23512,15759.98
790,23520,15779.95
791,23536,15799.92
792,23548,15819.90
793,23564,15839.87
794,23572,15859.85
795,23548,15879.82
796,23460,15899.80
797,23328,15919.77
798,23176,15939.75
799,23060,15959.72
800,23000,15979.70
801,22992,15999.67
802,23008,16019.65
803,23040,16039.62
804,23084,16059.59
805,23128,16079.57
806,23168,16099.54
807,23200,16119.52
808,23224,16139.49
809,23240,16159.47
810,23240,16179.44
811,23236,16199.42
812,23236,16219.39
813,23240,16239.37
814,23256,16259.34
815,23280,16279.32
816,23304,16299.29
817,23332,16319.26
818,23364,16339.24
819,23388,16359.21
820,23416,16379.19
821,23440,16399.16
822,23464,16419.14
823,23480,16439.11
824,23504,16459.09
825,23516,16479.06
826,23532,16499.04
827,23548,16519.01
828,23564,16538.99
829,23580,16558.96
830,23592,16578.93
831,23616,16598.91
832,23624,16618.88
833,23588,16638.86
834,23488,16658.83
835,23344,16678.81
836,23192,16698.78
837,23076,16718.76
838,23024,16738.73
839,23008,16758.71
840,23036,16778.68
841,23072,16798.66
842,23116,16818.63
843,23160,16838.60
844,23200,16858.58
845,23224,16878.55
846,23236,16898.53
847,23232,16918.50
848,23228,16938.48
849,23220,16958.45
850,23216,16978.43
851,23224,16998.40
852,23244,17018.38
853,23264,17038.35
854,23292,17058.33
855,23320,17078.30
856,23352,17098.27
857,23380,17118.25
858,23408,17138.22
859,23436,17158.20
860,23464,17178.17
861,23484,17198.15
862,23508,17218.12
863,23528,17238.10
864,23544,17258.07
865,23556,17278.05
866,23572,17298.02
867,23584,17318.00
868,23600,17337.97
869,23616,17357.94
870,23616,17377.92
871,23568,17397.89
872,23464,17417.87
873,23324,17437.84
874,23192,17457.82
875,23104,17477.79
876,23072,17497.77
877,23080,17517.74
878,23116,17537.72
879,23160,17557.69
880,23212,17577.67
881,23264,17597.64
882,23304,17617.62
883,23324,17637.59
884,23328,17657.56
885,23320,17677.54
886,23304,17697.51
887,23296,17717.49
888,23292,17737.46
889,23304,17757.44
890,23320,17777.41
891,23344,17797.39
892,23372,17817.36
893,23400,17837.34
894,23428,17857.31
895,23456,17877.29
896,23480,17897.26
897,23504,17917.23
898,23528,17937.21
899,23544,17957.18
900,23560,17977.16
901,23576,17997.13
902,23588,18017.11
903,23604,18037.08
904,23612,18057.06
905,23604,18077.03
906,23544,18097.01
907,23436,18116.98
908,23304,18136.96
909,23184,18156.93
910,23112,18176.90
911,23096,18196.88
912,23112,18216.85
913,23152,18236.83
914,23200,18256.80
915,23248,18276.78
916,23296,18296.75
917,23332,18316.73
918,23348,18336.70
919,23356,18356.68
920,23348,18376.65
921,23340,18396.63
922,23336,18416.60
923,23332,18436.57
924,23336,18456.55
925,23356,18476.52
926,23380,18496.50
927,23404,18516.47
928,23432,18536.45
929,23464,18556.42
930,23492,18576.40
931,23516,18596.37
932,23548,18616.35
933,23568,18636.32
934,23592,18656.30
935,23612,18676.27
936,23628,18696.24
937,23648,18716.22
938,23656,18736.19
939,23620,18756.17
940,23524,18776.14
941,23372,18796.12
942,23224,18816.09
943,23112,18836.07
944,23064,18856.04
945,23060,18876.02
946,23088,18895.99
947,23128,18915.97
948,23172,18935.94
949,23216,18955.91
950,23252,18975.89
951,23272,18995.86
952,23284,19015.84
953,23280,19035.81
954,23268,19055.79
955,23260,19075.76
956,23248,19095.74
957,23252,19115.71
958,23264,19135.69
959,23284,19155.66
960,23308,19175.64
961,23332,19195.61
962,23356,19215.58
963,23380,19235.56
964,23404,19255.53
965,23428,19275.51
966,23448,19295.48
967,23468,19315.46
968,23484,19335.43
969,23508,19355.41
970,23524,19375.38
971,23532,19395.36
972,23552,19415.33
973,23556,19435.31
974,23512,19455.28
975,23400,19475.25
976,23248,19495.23
977,23088,19515.20
978,22972,19535.18
979,22928,19555.15
980,22924,19575.13
981,22944,19595.10
982,22972,19615.08
983,23004,19635.05
984,23036,19655.03
985,23076,19675.00
986,23108,19694.98
987,23132,19714.95
988,23148,19734.92
989,23152,19754.90
990,23152,19774.87
991,23156,19794.85
992,23164,19814.82
993,23176,19834.80
994,23196,19854.77
995,23220,19874.75
996,23244,19894.72
997,23272,19914.70
998,23296,19934.67
999,23320,19954.65
1000,23344,19974.62
1001,23364,19994.59
1002,23384,20014.57
1003,23404,20034.54
1004,23416,20054.52
1005,23440,20074.49
1006,23456,20094.47
1007,23472,20114.44
1008,23488,20134.42
1009,23500,20154.39
1010,23472,20174.37
1011,23384,20194.34
1012,23240,20214.32
1013,23088,20234.29
1014,22972,20254.26
1015,22920,20274.24
1016,22916,20294.21
1017,22932,20314.19
1018,22968,20334.16
1019,23000,20354.14
1020,23036,20374.11
1021,23076,20394.09
1022,23112,20414.06
1023,23136,20434.04
1024,23152,20454.01
1025,23156,20473.99
1026,23156,20493.96
1027,23160,20513.93
1028,23160,20533.91
1029,23172,20553.88
1030,23196,20573.86
1031,23220,20593.83
1032,23248,20613.81
1033,23276,20633.78
1034,23312,20653.76
1035,23344,20673.73
1036,23368,20693.71
1037,23400,20713.68
1038,23424,20733.66
1039,23452,20753.63
1040,23464,20773.61
1041,23484,20793.58
1042,23508,20813.55
1043,23524,20833.53
1044,23544,20853.50
1045,23556,20873.48
1046,23576,20893.45
1047,23592,20913.43
1048,23608,20933.40
1049,23592,20953.38
1050,23508,20973.35
1051,23368,20993.33
1052,23204,21013.30
1053,23064,21033.28
1054,22992,21053.25
1055,22972,21073.22
1056,22988,21093.20
1057,23020,21113.17
1058,23060,21133.15
1059,23100,21153.12
1060,23140,21173.10
1061,23172,21193.07
1062,23196,21213.05
1063,23212,21233.02
1064,23212,21253.00
1065,23212,21272.97
1066,23212,21292.95
1067,23220,21312.92
1068,23232,21332.89
1069,23256,21352.87
1070,23280,21372.84
1071,23304,21392.82
1072,23332,21412.79
1073,23356,21432.77
1074,23384,21452.74
1075,23408,21472.72
1076,23436,21492.69
1077,23456,21512.67
1078,23476,21532.64
1079,23492,21552.62
1080,23508,21572.59
1081,23524,21592.56
1082,23540,21612.54
1083,23556,21632.51
1084,23568,21652.49
1085,23580,21672.46
1086,23596,21692.44
1087,23616,21712.41
1088,23600,21732.39
1089,23524,21752.36
1090,23392,21772.34
1091,23240,21792.31
1092,23112,21812.29
1093,23044,21832.26
1094,23024,21852.23
1095,23048,21872.21
1096,23088,21892.18
1097,23140,21912.16
1098,23192,21932.13
1099,23240,21952.11
1100,23284,21972.08
1101,23304,21992.06
1102,23312,22012.03
1103,23316,22032.01
1104,23308,22051.98
1105,23304,22071.96
1106,23304,22091.93
1107,23308,22111.90
1108,23324,22131.88
1109,23340,22151.85
1110,23364,22171.83
1111,23388,22191.80
1112,23412,22211.78
1113,23440,22231.75
1114,23468,22251.73
1115,23492,22271.70
1116,23516,22291.68
1117,23544,22311.65
1118,23564,22331.63
1119,23584,22351.60
1120,23596,22371.57
1121,23616,22391.55
1122,23600,22411.52
1123,23532,22431.50
1124,23420,22451.47
1125,23284,22471.45
1126,23168,22491.42
1127,23096,22511.40
1128,23072,22531.37
1129,23096,22551.35
1130,23140,22571.32
1131,23196,22591.30
1132,23252,22611.27
1133,23312,22631.24
1134,23360,22651.22
1135,23388,22671.19
1136,23404,22691.17
1137,23400,22711.14
1138,23392,22731.12
1139,23388,22751.09
1140,23388,22771.07
1141,23396,22791.04
1142,23416,22811.02
1143,23436,22830.99
1144,23460,22850.97
1145,23492,22870.94
1146,23520,22890.91
1147,23544,22910.89
1148,23568,22930.86
1149,23592,22950.84
1150,23616,22970.81
1151,23636,22990.79
1152,23656,23010.76
1153,23656,23030.74
1154,23604,23050.71
1155,23496,23070.69
1156,23356,23090.66
1157,23232,23110.64
1158,23144,23130.61
1159,23108,23150.58
1160,23120,23170.56
1161,23156,23190.53
1162,23212,23210.51
1163,23268,23230.48
1164,23328,23250.46
1165,23372,23270.43
1166,23404,23290.41
1167,23416,23310.38
1168,23416,23330.36
1169,23412,23350.33
1170,23400,23370.31
1171,23396,23390.28
1172,23400,23410.25
1173,23420,23430.23
1174,23444,23450.20
1175,23472,23470.18
1176,23504,23490.15
1177,23528,23510.13
1178,23556,23530.10
1179,23588,23550.08
1180,23608,23570.05
1181,23636,23590.03
1182,23652,23610.00
1183,23656,23629.98
1184,23604,23649.95
1185,23492,23669.92
1186,23340,23689.90
1187,23200,23709.87
1188,23104,23729.85
1189,23064,23749.82
1190,23072,23769.80
1191,23104,23789.77
1192,23152,23809.75
1193,23208,23829.72
1194,23264,23849.70
1195,23308,23869.67
1196,23340,23889.65
1197,23352,23909.62
1198,23352,23929.60
1199,23344,23949.57
1200,23332,23969.54
1201,23332,23989.52
1202,23336,24009.49
1203,23356,24029.47
1204,23376,24049.44
1205,23404,24069.42
1206,23432,24089.39
1207,23464,24109.37
1208,23492,24129.34
1209,23516,24149.32
1210,23544,24169.29
1211,23576,24189.27
1212,23600,24209.24
1213,23580,24229.21
1214,23488,24249.19
1215,23332,24269.16
1216,23172,24289.14
1217,23040,24309.11
1218,22972,24329.09
1219,22960,24349.06
1220,22984,24369.04
1221,23024,24389.01
1222,23076,24408.99
1223,23128,24428.96
1224,23180,24448.94
1225,23220,24468.91
1226,23240,24488.88
1227,23256,24508.86
1228,23256,24528.83
1229,23252,24548.81
1230,23248,24568.78
1231,23252,24588.76
1232,23260,24608.73
1233,23272,24628.71
1234,23296,24648.68
1235,23312,24668.66
1236,23336,24688.63
1237,23356,24708.61
1238,23376,24728.58
1239,23400,24748.55
1240,23420,24768.53
1241,23440,24788.50
1242,23464,24808.48
1243,23476,24828.45
1244,23436,24848.43
1245,23328,24868.40
1246,23164,24888.38
1247,23008,24908.35
1248,22904,24928.33
1249,22864,24948.30
1250,22868,24968.28
1251,22900,24988.25
1252,22944,25008.22
1253,22988,25028.20
1254,23036,25048.17
1255,23072,25068.15
1256,23104,25088.12
1257,23128,25108.10
1258,23136,25128.07
1259,23136,25148.05
1260,23132,25168.02
1261,23136,25188.00
1262,23144,25207.97
1263,23156,25227.95
1264,23180,25247.92
1265,23212,25267.89
1266,23240,25287.87
1267,23272,25307.84
1268,23304,25327.82
1269,23328,25347.79
1270,23356,25367.77
1271,23380,25387.74
1272,23404,25407.72
1273,23424,25427.69
1274,23440,25447.67
1275,23460,25467.64
1276,23476,25487.62
1277,23492,25507.59
1278,23496,25527.56
1279,23440,25547.54
1280,23312,25567.51
1281,23144,25587.49
1282,22988,25607.46
1283,22892,25627.44
1284,22852,25647.41
1285,22860,25667.39
1286,22896,25687.36
1287,22940,25707.34
1288,22980,25727.31
1289,23028,25747.29
1290,23072,25767.26
1291,23100,25787.23
1292,23120,25807.21
1293,23128,25827.18
1294,23132,25847.16
1295,23136,25867.13
1296,23140,25887.11
1297,23152,25907.08
1298,23172,25927.06
1299,23192,25947.03
1300,23220,25967.01
1301,23248,25986.98
1302,23276,26006.96
1303,23300,26026.93
1304,23328,26046.90
1305,23352,26066.88
1306,23380,26086.85
1307,23404,26106.83
1308,23428,26126.80
1309,23448,26146.78
1310,23468,26166.75
1311,23484,26186.73
1312,23500,26206.70
1313,23516,26226.68
1314,23528,26246.65
1315,23544,26266.63
1316,23552,26286.60
1317,23512,26306.57
1318,23408,26326.55
1319,23252,26346.52
1320,23088,26366.50
1321,22972,26386.47
1322,22924,26406.45
1323,22920,26426.42
1324,22948,26446.40
1325,22984,26466.37
1326,23032,26486.35
1327,23080,26506.32
1328,23128,26526.30
1329,23160,26546.27
1330,23180,26566.24
1331,23184,26586.22
1332,23184,26606.19
1333,23184,26626.17
1334,23184,26646.14
1335,23188,26666.12
1336,23200,26686.09
1337,23220,26706.07
1338,23244,26726.04
1339,23272,26746.02
1340,23296,26765.99
1341,23324,26785.97
1342,23352,26805.94
1343,23376,26825.91
1344,23396,26845.89
1345,23420,26865.86
1346,23436,26885.84
1347,23456,26905.81
1348,23480,26925.79
1349,23496,26945.76
1350,23512,26965.74
1351,23528,26985.71
1352,23544,27005.69
1353,23556,27025.66
1354,23580,27045.64
1355,23588,27065.61
1356,23544,27085.59
1357,23432,27105.56
1358,23284,27125.53
1359,23132,27145.51
1360,23028,27165.48
1361,22988,27185.46
1362,22988,27205.43
1363,23020,27225.41
1364,23064,27245.38
1365,23120,27265.36
1366,23172,27285.33
1367,23220,27305.31
1368,23248,27325.28
1369,23264,27345.26
1370,23272,27365.23
1371,23268,27385.20
1372,23260,27405.18
1373,23256,27425.15
1374,23268,27445.13
1375,23276,27465.10
1376,23296,27485.08
1377,23320,27505.05
1378,23348,27525.03
1379,23376,27545.00
1380,23400,27564.98
1381,23424,27584.95
1382,23456,27604.93
1383,23480,27624.90
1384,23508,27644.87
1385,23524,27664.85
1386,23544,27684.82
1387,23560,27704.80
1388,23584,27724.77
1389,23600,27744.75
1390,23620,27764.72
1391,23636,27784.70
1392,23636,27804.67
1393,23568,27824.65
1394,23448,27844.62
1395,23304,27864.60
1396,23172,27884.57
1397,23088,27904.54
1398,23060,27924.52
1399,23068,27944.49
1400,23108,27964.47
1401,23156,27984.44
1402,23208,28004.42
1403,23264,28024.39
1404,23308,28044.37
1405,23336,28064.34
1406,23340,28084.32
1407,23340,28104.29
1408,23324,28124.27
1409,23316,28144.24
1410,23316,28164.21
1411,23328,28184.19
1412,23344,28204.16
1413,23372,28224.14
1414,23396,28244.11
1415,23428,28264.09
1416,23456,28284.06
1417,23484,28304.04
1418,23516,28324.01
1419,23540,28343.99
1420,23564,28363.96
1421,23588,28383.94
1422,23608,28403.91
1423,23632,28423.88
1424,23656,28443.86
1425,23660,28463.83
1426,23620,28483.81
1427,23516,28503.78
1428,23380,28523.76
1429,23240,28543.73
1430,23144,28563.71
1431,23104,28583.68
1432,23112,28603.66
1433,23140,28623.63
1434,23192,28643.61
1435,23244,28663.58
1436,23300,28683.55
1437,23348,28703.53
1438,23376,28723.50
1439,23388,28743.48
1440,23384,28763.45
1441,23372,28783.43
1442,23364,28803.40
1443,23360,28823.38
1444,23368,28843.35
1445,23380,28863.33
1446,23404,28883.30
1447,23424,28903.28
1448,23448,28923.25
1449,23472,28943.22
1450,23496,28963.20
1451,23524,28983.17
1452,23548,29003.15
1453,23572,29023.12
1454,23596,29043.10
1455,23620,29063.07
1456,23636,29083.05
1457,23616,29103.02
1458,23544,29123.00
1459,23408,29142.97
1460,23256,29162.95
1461,23128,29182.92
1462,23056,29202.89
1463,23044,29222.87
1464,23064,29242.84
1465,23112,29262.82
1466,23164,29282.79
1467,23216,29302.77
1468,23268,29322.74
1469,23308,29342.72
1470,23332,29362.69
1471,23340,29382.67
1472,23344,29402.64
1473,23336,29422.62
1474,23324,29442.59
1475,23320,29462.56
1476,23328,29482.54
1477,23344,29502.51
1478,23364,29522.49
1479,23392,29542.46
1480,23420,29562.44
1481,23448,29582.41
1482,23472,29602.39
1483,23496,29622.36
1484,23520,29642.34
1485,23548,29662.31
1486,23572,29682.29
1487,23596,29702.26
1488,23600,29722.23
1489,23544,29742.21
1490,23416,29762.18
1491,23248,29782.16
1492,23096,29802.13
1493,23000,29822.11
1494,22960,29842.08
1495,22972,29862.06
1496,23004,29882.03
1497,23052,29902.01
1498,23104,29921.98
1499,23152,29941.96
1500,23196,29961.93
1501,23224,29981.90
1502,23244,30001.88
1503,23244,30021.85
1504,23248,30041.83
1505,23248,30061.80
1506,23248,30081.78
1507,23256,30101.75
1508,23272,30121.73
1509,23292,30141.70
1510,23316,30161.68
1511,23344,30181.65
1512,23372,30201.63
1513,23400,30221.60
1514,23424,30241.58
1515,23452,30261.55
1516,23476,30281.52
1517,23496,30301.50
1518,23512,30321.47
1519,23528,30341.45
1520,23540,30361.42
1521,23552,30381.40
1522,23568,30401.37
1523,23552,30421.35
1524,23464,30441.32
1525,23316,30461.30
1526,23136,30481.27
1527,22992,30501.25
1528,22912,30521.22
1529,22888,30541.19
1530,22908,30561.17
1531,22948,30581.14
1532,22984,30601.12
1533,23032,30621.09
1534,23080,30641.07
1535,23116,30661.04
1536,23144,30681.02
1537,23160,30700.99
1538,23168,30720.97
1539,23168,30740.94
1540,23172,30760.92
1541,23176,30780.89
1542,23188,30800.86
1543,23204,30820.84
1544,23228,30840.81
1545,23256,30860.79
1546,23284,30880.76
1547,23312,30900.74
1548,23344,30920.71
1549,23376,30940.69
1550,23400,30960.66
1551,23428,30980.64
1552,23448,31000.61
1553,23468,31020.59
1554,23496,31040.56
1555,23512,31060.53
1556,23532,31080.51
1557,23548,31100.48
1558,23560,31120.46
1559,23576,31140.43
1560,23592,31160.41
1561,23608,31180.38
1562,23600,31200.36
1563,23524,31220.33
1564,23380,31240.31
1565,23192,31260.28
1566,23032,31280.26
1567,22936,31300.23
1568,22896,31320.20
1569,22908,31340.18
1570,22944,31360.15
1571,22988,31380.13
1572,23036,31400.10
1573,23084,31420.08
1574,23124,31440.05
1575,23152,31460.03
1576,23172,31480.00
1577,23180,31499.98
1578,23184,31519.95
1579,23184,31539.93
1580,23188,31559.90
1581,23200,31579.87
1582,23216,31599.85
1583,23236,31619.82
1584,23260,31639.80
1585,23284,31659.77
1586,23316,31679.75
1587,23340,31699.72
1588,23368,31719.70
1589,23396,31739.67
1590,23420,31759.65
1591,23440,31779.62
1592,23464,31799.60
1593,23484,31819.57
1594,23504,31839.54
1595,23520,31859.52
1596,23540,31879.49
1597,23556,31899.47
1598,23572,31919.44
1599,23592,31939.42
1600,23608,31959.39
1601,23588,31979.37
1602,23496,31999.34
1603,23352,32019.32
1604,23176,32039.29
1605,23032,32059.27
1606,22952,32079.24
1607,22928,32099.21
1608,22948,32119.19
1609,22992,32139.16
1610,23040,32159.14
1611,23100,32179.11
1612,23156,32199.09
1613,23196,32219.06
1614,23220,32239.04
1615,23232,32259.01
1616,23228,32278.99
1617,23216,32298.96
1618,23216,32318.94
1619,23216,32338.91
1620,23224,32358.88
1621,23236,32378.86
1622,23256,32398.83
1623,23284,32418.81
1624,23308,32438.78
1625,23336,32458.76
1626,23364,32478.73
1627,23392,32498.71
1628,23420,32518.68
1629,23448,32538.66
1630,23472,32558.63
1631,23492,32578.61
1632,23516,32598.58
1633,23532,32618.55
1634,23552,32638.53
1635,23564,32658.50
1636,23576,32678.48
1637,23596,32698.45
1638,23612,32718.43
1639,23624,32738.40
1640,23592,32758.38
1641,23492,32778.35
1642,23344,32798.33
1643,23184,32818.30
1644,23060,32838.28
1645,22988,32858.25
1646,22976,32878.22
1647,22996,32898.20
1648,23040,32918.17
1649,23096,32938.15
1650,23156,32958.12
1651,23212,32978.10
1652,23248,32998.07
1653,23268,33018.05
1654,23272,33038.02
1655,23268,33058.00
1656,23256,33077.97
1657,23252,33097.95
1658,23256,33117.92
1659,23268,33137.89
1660,23292,33157.87
1661,23312,33177.84
1662,23344,33197.82
1663,23372,33217.79
1664,23404,33237.77
1665,23432,33257.74
1666,23460,33277.72
1667,23488,33297.69
1668,23512,33317.67
1669,23536,33337.64
1670,23552,33357.62
1671,23572,33377.59
1672,23592,33397.57
1673,23612,33417.54
1674,23624,33437.51
1675,23592,33457.49
1676,23496,33477.46
1677,23356,33497.44
1678,23220,33517.41
1679,23116,33537.39
1680,23064,33557.36
1681,23064,33577.34
1682,23096,33597.31
1683,23140,33617.29
1684,23196,33637.26
1685,23260,33657.24
1686,23312,33677.21
1687,23344,33697.18
1688,23360,33717.16
1689,23364,33737.13
1690,23356,33757.11
1691,23348,33777.08
1692,23336,33797.06
1693,23340,33817.03
1694,23348,33837.01
1695,23364,33856.98
1696,23380,33876.96
1697,23404,33896.93
1698,23428,33916.91
1699,23452,33936.88
1700,23476,33956.85
1701,23496,33976.83
1702,23528,33996.80
1703,23552,34016.78
1704,23572,34036.75
1705,23596,34056.73
1706,23592,34076.70
1707,23520,34096.68
1708,23400,34116.65
1709,23256,34136.63
1710,23132,34156.60
1711,23060,34176.58
1712,23044,34196.55
1713,23072,34216.52
1714,23108,34236.50
1715,23168,34256.47
1716,23228,34276.45
1717,23288,34296.42
1718,23328,34316.40
1719,23356,34336.37
1720,23368,34356.35
1721,23360,34376.32
1722,23352,34396.30
1723,23340,34416.27
1724,23340,34436.25
1725,23348,34456.22
1726,23360,34476.19
1727,23384,34496.17
1728,23404,34516.14
1729,23432,34536.12
1730,23456,34556.09
1731,23484,34576.07
1732,23508,34596.04
1733,23528,34616.02
1734,23552,34635.99
1735,23572,34655.97
1736,23560,34675.94
1737,23484,34695.92
1738,23352,34715.89
1739,23196,34735.86
1740,23060,34755.84
1741,22988,34775.81
1742,22972,34795.79
1743,22992,34815.76
1744,23032,34835.74
1745,23088,34855.71
1746,23148,34875.69
1747,23204,34895.66
1748,23252,34915.64
1749,23276,34935.61
1750,23284,34955.59
1751,23284,34975.56
1752,23276,34995.53
1753,23268,35015.51
1754,23272,35035.48
1755,23288,35055.46
1756,23308,35075.43
1757,23332,35095.41
1758,23360,35115.38
1759,23388,35135.36
1760,23416,35155.33
1761,23448,35175.31
1762,23468,35195.28
1763,23492,35215.26
1764,23516,35235.23
1765,23536,35255.20
1766,23552,35275.18
1767,23512,35295.15
1768,23404,35315.13
1769,23244,35335.10
1770,23084,35355.08
1771,22972,35375.05
1772,22928,35395.03
1773,22932,35415.00
1774,22964,35434.98
1775,23008,35454.95
1776,23056,35474.93
1777,23104,35494.90
1778,23148,35514.87
1779,23176,35534.85
1780,23188,35554.82
1781,23192,35574.80
1782,23192,35594.77
1783,23192,35614.75
1784,23192,35634.72
1785,23200,35654.70
1786,23216,35674.67
1787,23232,35694.65
1788,23256,35714.62
1789,23284,35734.60
1790,23308,35754.57
1791,23336,35774.54
1792,23364,35794.52
1793,23384,35814.49
1794,23412,35834.47
1795,23436,35854.44
1796,23452,35874.42
1797,23468,35894.39
1798,23448,35914.37
1799,23356,35934.34
1800,23200,35954.32
1801,23032,35974.29
1802,22908,35994.27
1803,22848,36014.24
1804,22852,36034.21
1805,22884,36054.19
1806,22924,36074.16
1807,22968,36094.14
1808,23020,36114.11
1809,23064,36134.09
1810,23104,36154.06
1811,23132,36174.04
1812,23140,36194.01
1813,23144,36213.99
1814,23140,36233.96
1815,23140,36253.94
1816,23148,36273.91
1817,23156,36293.88
1818,23172,36313.86
1819,23192,36333.83
1820,23216,36353.81
1821,23236,36373.78
1822,23268,36393.76
1823,23292,36413.73
1824,23316,36433.71
1825,23340,36453.68
1826,23360,36473.66
1827,23384,36493.63
1828,23400,36513.61
1829,23416,36533.58
1830,23432,36553.56
1831,23444,36573.53
1832,23460,36593.50
1833,23440,36613.48
1834,23348,36633.45
1835,23200,36653.43
1836,23040,36673.40
1837,22920,36693.38
1838,22864,36713.35
1839,22864,36733.33
1840,22892,36753.30
1841,22936,36773.28
1842,22980,36793.25
1843,23028,36813.23
1844,23072,36833.20
1845,23108,36853.17
1846,23132,36873.15
1847,23140,36893.12
1848,23140,36913.10
1849,23136,36933.07
1850,23140,36953.05
1851,23144,36973.02
1852,23160,36993.00
1853,23176,37012.97
1854,23200,37032.95
1855,23220,37052.92
1856,23252,37072.90
1857,23276,37092.87
1858,23300,37112.84
1859,23320,37132.82
1860,23344,37152.79
1861,23364,37172.77
1862,23380,37192.74
1863,23400,37212.72
1864,23412,37232.69
1865,23420,37252.67
1866,23436,37272.64
1867,23448,37292.62
1868,23460,37312.59
1869,23476,37332.57
1870,23484,37352.54
1871,23436,37372.51
1872,23320,37392.49
1873,23168,37412.46
1874,23012,37432.44
1875,22916,37452.41
1876,22872,37472.39
1877,22888,37492.36
1878,22928,37512.34
1879,22976,37532.31
1880,23032,37552.29
1881,23084,37572.26
1882,23124,37592.24
1883,23156,37612.21
1884,23172,37632.18
1885,23176,37652.16
1886,23172,37672.13
1887,23164,37692.11
1888,23168,37712.08
1889,23180,37732.06
1890,23196,37752.03
1891,23212,37772.01
1892,23232,37791.98
1893,23252,37811.96
1894,23276,37831.93
1895,23304,37851.91
1896,23328,37871.88
1897,23348,37891.85
1898,23368,37911.83
1899,23392,37931.80
1900,23408,37951.78
1901,23424,37971.75
1902,23440,37991.73
1903,23452,38011.70
1904,23464,38031.68
1905,23472,38051.65
1906,23492,38071.63
1907,23508,38091.60
1908,23520,38111.58
1909,23496,38131.55
1910,23408,38151.52
1911,23268,38171.50
1912,23108,38191.47
1913,22992,38211.45
1914,22932,38231.42
1915,22924,38251.40
1916,22948,38271.37
1917,22988,38291.35
1918,23044,38311.32
1919,23096,38331.30
1920,23148,38351.27
1921,23180,38371.25
1922,23196,38391.22
1923,23200,38411.19
1924,23200,38431.17
1925,23192,38451.14
1926,23188,38471.12
1927,23196,38491.09
1928,23204,38511.07
1929,23224,38531.04
1930,23248,38551.02
1931,23276,38570.99
1932,23300,38590.97
1933,23324,38610.94
1934,23352,38630.92
1935,23376,38650.89
1936,23400,38670.86
1937,23420,38690.84
1938,23440,38710.81
1939,23456,38730.79
1940,23472,38750.76
1941,23488,38770.74
1942,23508,38790.71
1943,23528,38810.69
1944,23548,38830.66
1945,23572,38850.64
1946,23552,38870.61
1947,23472,38890.59
1948,23336,38910.56
1949,23184,38930.53
1950,23060,38950.51
1951,23000,38970.48
1952,22988,38990.46
1953,23016,39010.43
1954,23060,39030.41
1955,23112,39050.38
1956,23168,39070.36
1957,23216,39090.33
1958,23256,39110.31
1959,23272,39130.28
1960,23272,39150.26
1961,23264,39170.23
1962,23256,39190.20
1963,23252,39210.18
1964,23248,39230.15
1965,23260,39250.13
1966,23276,39270.10
1967,23300,39290.08
1968,23324,39310.05
1969,23352,39330.03
1970,23384,39350.00
1971,23408,39369.98
1972,23432,39389.95
1973,23460,39409.93
1974,23480,39429.90
1975,23500,39449.87
1976,23520,39469.85
1977,23532,39489.82
1978,23548,39509.80
1979,23564,39529.77
1980,23576,39549.75
1981,23556,39569.72
1982,23472,39589.70
1983,23332,39609.67
1984,23180,39629.65
1985,23056,39649.62
1986,22988,39669.60
1987,22980,39689.57
1988,23008,39709.55
1989,23056,39729.52
1990,23112,39749.49
1991,23164,39769.47
1992,23212,39789.44
1993,23248,39809.42
1994,23272,39829.39
1995,23272,39849.37
1996,23268,39869.34
1997,23256,39889.32
1998,23244,39909.29
1999,23248,39929.27
2000,23248,39949.24
2001,23268,39969.22
2002,23292,39989.19
2003,23316,40009.16
2004,23348,40029.14
2005,23376,40049.11
2006,23408,40069.09
2007,23432,40089.06
2008,23460,40109.04
2009,23484,40129.01
2010,23504,40148.99
2011,23524,40168.96
2012,23544,40188.94
2013,23564,40208.91
2014,23576,40228.89
2015,23564,40248.86
2016,23492,40268.83
2017,23352,40288.81
2018,23184,40308.78
2019,23036,40328.76
2020,22960,40348.73
2021,22932,40368.71
2022,22948,40388.68
2023,22988,40408.66
2024,23040,40428.63
2025,23092,40448.61
2026,23144,40468.58
2027,23192,40488.56
2028,23224,40508.53
2029,23240,40528.50
2030,23240,40548.48
2031,23236,40568.45
2032,23228,40588.43
2033,23224,40608.40
2034,23232,40628.38
2035,23244,40648.35
2036,23264,40668.33
2037,23284,40688.30
2038,23316,40708.28
2039,23344,40728.25
2040,23376,40748.23
2041,23404,40768.20
2042,23428,40788.17
2043,23452,40808.15
2044,23472,40828.12
2045,23496,40848.10
2046,23512,40868.07
2047,23532,40888.05
2048,23544,40908.02
2049,23568,40928.00
2050,23584,40947.97
2051,23584,40967.95
2052,23512,40987.92
2053,23364,41007.90
2054,23168,41027.87
2055,23000,41047.84
2056,22904,41067.82
2057,22872,41087.79
2058,22884,41107.77
2059,22928,41127.74
2060,22976,41147.72
2061,23024,41167.69
2062,23068,41187.67
2063,23112,41207.64
2064,23140,41227.62
2065,23156,41247.59
2066,23168,41267.57
2067,23172,41287.54
2068,23168,41307.51
2069,23172,41327.49
2070,23184,41347.46
2071,23196,41367.44
2072,23220,41387.41
2073,23244,41407.39
2074,23268,41427.36
2075,23296,41447.34
2076,23324,41467.31
2077,23352,41487.29
2078,23376,41507.26
2079,23396,41527.24
2080,23420,41547.21
2081,23444,41567.18
2082,23472,41587.16
2083,23496,41607.13
2084,23516,41627.11
2085,23532,41647.08
2086,23548,41667.06
2087,23564,41687.03
2088,23572,41707.01
2089,23524,41726.98
2090,23400,41746.96
2091,23224,41766.93
2092,23044,41786.91
2093,22920,41806.88
2094,22864,41826.85
2095,22864,41846.83
2096,22892,41866.80
2097,22936,41886.78
2098,22984,41906.75
2099,23036,41926.73
2100,23084,41946.70
2101,23120,41966.68
2102,23144,41986.65
2103,23156,42006.63
2104,23160,42026.60
2105,23156,42046.58
2106,23156,42066.55
2107,23164,42086.52
2108,23176,42106.50
2109,23196,42126.47
2110,23220,42146.45
2111,23248,42166.42
2112,23280,42186.40
2113,23312,42206.37
2114,23344,42226.35
2115,23372,42246.32
2116,23396,42266.30
2117,23420,42286.27
2118,23448,42306.25
2119,23468,42326.22
2120,23488,42346.19
2121,23504,42366.17
2122,23512,42386.14
2123,23524,42406.12
2124,23544,42426.09
2125,23548,42446.07
2126,23500,42466.04
2127,23380,42486.02
2128,23208,42505.99
2129,23040,42525.97
2130,22920,42545.94
2131,22872,42565.92
2132,22876,42585.89
2133,22912,42605.86
2134,22960,42625.84
2135,23012,42645.81
2136,23068,42665.79
2137,23116,42685.76
2138,23148,42705.74
2139,23168,42725.71
2140,23176,42745.69
2141,23176,42765.66
2142,23172,42785.64
2143,23172,42805.61
2144,23180,42825.59
2145,23196,42845.56
2146,23220,42865.54
2147,23244,42885.51
2148,23272,42905.48
2149,23304,42925.46
2150,23340,42945.43
2151,23368,42965.41
2152,23396,42985.38
2153,23428,43005.36
2154,23452,43025.33
2155,23472,43045.31
2156,23496,43065.28
2157,23520,43085.26
2158,23544,43105.23
2159,23564,43125.21
2160,23580,43145.18
2161,23600,43165.15
2162,23580,43185.13
2163,23496,43205.10
2164,23352,43225.08
2165,23176,43245.05
2166,23032,43265.03
2167,22948,43285.00
2168,22924,43304.98
2169,22944,43324.95
2170,22988,43344.93
2171,23044,43364.90
2172,23104,43384.88
2173,23160,43404.85
2174,23204,43424.82
2175,23232,43444.80
2176,23244,43464.77
2177,23244,43484.75
2178,23236,43504.72
2179,23228,43524.70
2180,23224,43544.67
2181,23236,43564.65
2182,23252,43584.62
2183,23272,43604.60
2184,23296,43624.57
2185,23328,43644.55
2186,23352,43664.52
2187,23384,43684.49
2188,23412,43704.47
2189,23440,43724.44
2190,23464,43744.42
2191,23488,43764.39
2192,23508,43784.37
2193,23532,43804.34
2194,23556,43824.32
2195,23560,43844.29
2196,23512,43864.27
2197,23400,43884.24
2198,23252,43904.22
2199,23112,43924.19
2200,23016,43944.16
2201,22984,43964.14
2202,22988,43984.11
2203,23028,44004.09
2204,23080,44024.06
2205,23140,44044.04
2206,23204,44064.01
2207,23252,44083.99
2208,23292,44103.96
2209,23304,44123.94
2210,23308,44143.91
2211,23300,44163.89
2212,23284,44183.86
2213,23280,44203.83
2214,23284,44223.81
2215,23296,44243.78
2216,23320,44263.76
2217,23344,44283.73
2218,23368,44303.71
2219,23396,44323.68
2220,23424,44343.66
2221,23452,44363.63
2222,23476,44383.61
2223,23504,44403.58
2224,23532,44423.56
2225,23560,44443.53
2226,23556,44463.50
2227,23488,44483.48
2228,23360,44503.45
2229,23212,44523.43
2230,23084,44543.40
2231,23012,44563.38
2232,22996,44583.35
2233,23016,44603.33
2234,23056,44623.30
2235,23116,44643.28
2236,23180,44663.25
2237,23240,44683.23
2238,23284,44703.20
2239,23312,44723.17
2240,23320,44743.15
2241,23320,44763.12
2242,23308,44783.10
2243,23300,44803.07
2244,23304,44823.05
2245,23312,44843.02
2246,23332,44863.00
2247,23352,44882.97
2248,23384,44902.95
2249,23408,44922.92
2250,23436,44942.90
2251,23460,44962.87
2252,23484,44982.84
2253,23508,45002.82
2254,23532,45022.79
2255,23520,45042.77
2256,23440,45062.74
2257,23300,45082.72
2258,23140,45102.69
2259,23012,45122.67
2260,22940,45142.64
2261,22928,45162.62
2262,22956,45182.59
2263,23004,45202.57
2264,23060,45222.54
2265,23124,45242.51
2266,23180,45262.49
2267,23224,45282.46
2268,23248,45302.44
2269,23252,45322.41
2270,23248,45342.39
2271,23232,45362.36
2272,23224,45382.34
2273,23224,45402.31
2274,23236,45422.29
2275,23252,45442.26
2276,23280,45462.24
2277,23304,45482.21
2278,23328,45502.18
2279,23360,45522.16
2280,23384,45542.13
2281,23412,45562.11
2282,23436,45582.08
2283,23444,45602.06
2284,23380,45622.03
2285,23240,45642.01
2286,23072,45661.98
2287,22924,45681.96
2288,22848,45701.93
2289,22824,45721.91
2290,22844,45741.88
2291,22884,45761.85
2292,22932,45781.83
2293,22988,45801.80
2294,23036,45821.78
2295,23076,45841.75
2296,23100,45861.73
2297,23108,45881.70
2298,23100,45901.68
2299,23088,45921.65
2300,23080,45941.63
2301,23088,45961.60
2302,23100,45981.58
2303,23124,46001.55
2304,23148,46021.53
2305,23180,46041.50
2306,23208,46061.47
2307,23236,46081.45
2308,23268,46101.42
2309,23292,46121.40
2310,23320,46141.37
2311,23352,46161.35
2312,23372,46181.32
2313,23364,46201.30
2314,23276,46221.27
2315,23120,46241.25
2316,22944,46261.22
2317,22812,46281.20
2318,22752,46301.17
2319,22748,46321.14
2320,22780,46341.12
2321,22824,46361.09
2322,22872,46381.07
2323,22920,46401.04
2324,22964,46421.02
2325,22996,46440.99
2326,23020,46460.97
2327,23028,46480.94
2328,23032,46500.92
2329,23032,46520.89
2330,23036,46540.87
2331,23048,46560.84
2332,23068,46580.81
2333,23084,46600.79
2334,23108,46620.76
2335,23136,46640.74
2336,23164,46660.71
2337,23196,46680.69
2338,23220,46700.66
2339,23252,46720.64
2340,23272,46740.61
2341,23296,46760.59
2342,23324,46780.56
2343,23344,46800.54
2344,23364,46820.51
2345,23380,46840.48
2346,23400,46860.46
2347,23372,46880.43
2348,23268,46900.41
2349,23096,46920.38
2350,22916,46940.36
2351,22784,46960.33
2352,22728,46980.31
2353,22732,47000.28
2354,22768,47020.26
2355,22812,47040.23
2356,22864,47060.21
2357,22916,47080.18
2358,22964,47100.15
2359,22996,47120.13
2360,23028,47140.10
2361,23040,47160.08
2362,23052,47180.05
2363,23056,47200.03
2364,23056,47220.00
2365,23064,47239.98
2366,23080,47259.95
2367,23096,47279.93
2368,23124,47299.90
2369,23156,47319.88
2370,23184,47339.85
2371,23216,47359.82
2372,23244,47379.80
2373,23272,47399.77
2374,23300,47419.75
2375,23324,47439.72
2376,23348,47459.70
2377,23368,47479.67
2378,23384,47499.65
2379,23404,47519.62
2380,23416,47539.60
2381,23428,47559.57
2382,23444,47579.55
2383,23460,47599.52
2384,23452,47619.49
2385,23372,47639.47
2386,23216,47659.44
2387,23028,47679.42
2388,22872,47699.39
2389,22792,47719.37
2390,22776,47739.34
2391,22804,47759.32
2392,22848,47779.29
2393,22904,47799.27
2394,22960,47819.24
2395,23012,47839.22
2396,23056,47859.19
2397,23084,47879.16
2398,23096,47899.14
2399,23100,47919.11
2400,23096,47939.09
2401,23096,47959.06
2402,23100,47979.04
2403,23108,47999.01
2404,23128,48018.99
2405,23152,48038.96
2406,23180,48058.94
2407,23212,48078.91
2408,23244,48098.89
2409,23272,48118.86
2410,23300,48138.83
2411,23324,48158.81
2412,23352,48178.78
2413,23380,48198.76
2414,23408,48218.73
2415,23432,48238.71
2416,23452,48258.68
2417,23472,48278.66
2418,23488,48298.63
2419,23508,48318.61
2420,23524,48338.58
2421,23540,48358.56
2422,23552,48378.53
2423,23528,48398.50
2424,23428,48418.48
2425,23264,48438.45
2426,23084,48458.43
2427,22944,48478.40
2428,22868,48498.38
2429,22860,48518.35
2430,22884,48538.33
2431,22932,48558.30
2432,22984,48578.28
2433,23044,48598.25
2434,23100,48618.23
2435,23144,48638.20
2436,23172,48658.17
2437,23176,48678.15
2438,23172,48698.12
2439,23164,48718.10
2440,23160,48738.07
2441,23164,48758.05
2442,23172,48778.02
2443,23192,48798.00
2444,23220,48817.97
2445,23244,48837.95
2446,23276,48857.92
2447,23304,48877.90
2448,23336,48897.87
2449,23364,48917.84
2450,23388,48937.82
2451,23416,48957.79
2452,23440,48977.77
2453,23460,48997.74
2454,23480,49017.72
2455,23500,49037.69
2456,23524,49057.67
2457,23548,49077.64
2458,23568,49097.62
2459,23560,49117.59
2460,23484,49137.57
2461,23344,49157.54
2462,23176,49177.52
2463,23040,49197.49
2464,22952,49217.46
2465,22932,49237.44
2466,22952,49257.41
2467,23000,49277.39
2468,23060,49297.36
2469,23124,49317.34
2470,23188,49337.31
2471,23232,49357.29
2472,23256,49377.26
2473,23268,49397.24
2474,23264,49417.21
2475,23256,49437.19
2476,23256,49457.16
2477,23256,49477.13
2478,23268,49497.11
2479,23284,49517.08
2480,23312,49537.06
2481,23340,49557.03
2482,23372,49577.01
2483,23400,49596.98
2484,23432,49616.96
2485,23460,49636.93
2486,23488,49656.91
2487,23516,49676.88
2488,23544,49696.86
2489,23568,49716.83
2490,23592,49736.80
2491,23612,49756.78
2492,23592,49776.75
2493,23500,49796.73
2494,23360,49816.70
2495,23200,49836.68
2496,23076,49856.65
2497,23012,49876.63
2498,23000,49896.60
2499,23028,49916.58
2500,23080,49936.55
2501,23140,49956.53
2502,23204,49976.50
2503,23268,49996.47
2504,23308,50016.45
2505,23336,50036.42
2506,23344,50056.40
2507,23332,50076.37
2508,23320,50096.35
2509,23312,50116.32
2510,23312,50136.30
2511,23320,50156.27
2512,23336,50176.25
2513,23360,50196.22
2514,23388,50216.20
2515,23420,50236.17
2516,23444,50256.14
2517,23472,50276.12
2518,23500,50296.09
2519,23528,50316.07
2520,23552,50336.04
2521,23580,50356.02
2522,23604,50375.99
2523,23588,50395.97
2524,23500,50415.94
2525,23348,50435.92
2526,23180,50455.89
2527,23044,50475.87
2528,22968,50495.84
2529,22960,50515.81
2530,22988,50535.79
2531,23036,50555.76
2532,23092,50575.74
2533,23156,50595.71
2534,23204,50615.69
2535,23248,50635.66
2536,23276,50655.64
2537,23284,50675.61
2538,23284,50695.59
2539,23276,50715.56
2540,23276,50735.54
2541,23276,50755.51
2542,23296,50775.48
2543,23312,50795.46
2544,23336,50815.43
2545,23364,50835.41
2546,23392,50855.38
2547,23416,50875.36
2548,23444,50895.33
2549,23472,50915.31
2550,23492,50935.28
2551,23524,50955.26
2552,23552,50975.23
2553,23568,50995.21
2554,23540,51015.18
2555,23432,51035.15
2556,23256,51055.13
2557,23080,51075.10
2558,22948,51095.08
2559,22888,51115.05
2560,22884,51135.03
2561,22920,51155.00
2562,22972,51174.98
2563,23032,51194.95
2564,23096,51214.93
2565,23152,51234.90
2566,23192,51254.88
2567,23212,51274.85
2568,23224,51294.82
2569,23224,51314.80
2570,23220,51334.77
2571,23216,51354.75
2572,23228,51374.72
2573,23240,51394.70
2574,23260,51414.67
2575,23288,51434.65
2576,23312,51454.62
2577,23344,51474.60
2578,23372,51494.57
2579,23400,51514.55
2580,23420,51534.52
2581,23452,51554.49
2582,23476,51574.47
2583,23500,51594.44
2584,23528,51614.42
2585,23516,51634.39
2586,23424,51654.37
2587,23260,51674.34
2588,23080,51694.32
2589,22932,51714.29
2590,22856,51734.27
2591,22844,51754.24
2592,22868,51774.22
2593,22916,51794.19
2594,22968,51814.16
2595,23028,51834.14
2596,23084,51854.11
2597,23124,51874.09
2598,23152,51894.06
2599,23164,51914.04
2600,23164,51934.01
2601,23156,51953.99
2602,23156,51973.96
2603,23152,51993.94
2604,23160,52013.91
2605,23180,52033.89
2606,23204,52053.86
2607,23228,52073.83
2608,23256,52093.81
2609,23280,52113.78
2610,23308,52133.76
2611,23332,52153.73
2612,23356,52173.71
2613,23380,52193.68
2614,23404,52213.66
2615,23436,52233.63
2616,23460,52253.61
2617,23448,52273.58
2618,23364,52293.56
2619,23212,52313.53
2620,23032,52333.51
2621,22896,52353.48
2622,22828,52373.45
2623,22820,52393.43
2624,22852,52413.40
2625,22900,52433.38
2626,22960,52453.35
2627,23020,52473.33
2628,23076,52493.30
2629,23112,52513.28
2630,23140,52533.25
2631,23148,52553.23
2632,23148,52573.20
2633,23144,52593.18
2634,23140,52613.15
2635,23140,52633.12
2636,23152,52653.10
2637,23168,52673.07
2638,23192,52693.05
2639,23220,52713.02
2640,23248,52733.00
2641,23272,52752.97
2642,23300,52772.95
2643,23328,52792.92
2644,23352,52812.90
2645,23380,52832.87
2646,23404,52852.85
2647,23428,52872.82
2648,23452,52892.79
2649,23428,52912.77
2650,23336,52932.74
2651,23176,52952.72
2652,23016,52972.69
2653,22892,52992.67
2654,22840,53012.64
2655,22840,53032.62
2656,22876,53052.59
2657,22932,53072.57
2658,22988,53092.54
2659,23056,53112.52
2660,23104,53132.49
2661,23148,53152.46
2662,23168,53172.44
2663,23180,53192.41
2664,23176,53212.39
2665,23172,53232.36
2666,23164,53252.34
2667,23168,53272.31
2668,23184,53292.29
2669,23204,53312.26
2670,23240,53332.24
2671,23276,53352.21
2672,23304,53372.19
2673,23332,53392.16
2674,23364,53412.13
2675,23388,53432.11
2676,23416,53452.08
2677,23444,53472.06
2678,23464,53492.03
2679,23492,53512.01
2680,23516,53531.98
2681,23508,53551.96
2682,23432,53571.93
2683,23292,53591.91
2684,23128,53611.88
2685,22992,53631.86
2686,22920,53651.83
2687,22908,53671.80
2688,22936,53691.78
2689,22984,53711.75
2690,23044,53731.73
2691,23112,53751.70
2692,23176,53771.68
2693,23220,53791.65
2694,23248,53811.63
2695,23256,53831.60
2696,23252,53851.58
2697,23244,53871.55
2698,23240,53891.53
2699,23240,53911.50
2700,23248,53931.47
2701,23268,53951.45
2702,23288,53971.42
2703,23316,53991.40
2704,23344,54011.37
2705,23372,54031.35
2706,23400,54051.32
2707,23428,54071.30
2708,23456,54091.27
2709,23484,54111.25
2710,23512,54131.22
2711,23516,54151.20
2712,23456,54171.17
2713,23340,54191.14
2714,23192,54211.12
2715,23060,54231.09
2716,22984,54251.07
2717,22968,54271.04
2718,22988,54291.02
2719,23036,54310.99
2720,23088,54330.97
2721,23160,54350.94
2722,23224,54370.92
2723,23276,54390.89
2724,23304,54410.87
2725,23312,54430.84
2726,23304,54450.81
2727,23300,54470.79
2728,23292,54490.76
2729,23296,54510.74
2730,23300,54530.71
2731,23320,54550.69
2732,23348,54570.66
2733,23376,54590.64
2734,23404,54610.61
2735,23424,54630.59
2736,23448,54650.56
2737,23476,54670.54
2738,23504,54690.51
2739,23536,54710.48
2740,23556,54730.46
2741,23524,54750.43
2742,23428,54770.41
2743,23284,54790.38
2744,23136,54810.36
2745,23024,54830.33
2746,22964,54850.31
2747,22960,54870.28
2748,22992,54890.26
2749,23044,54910.23
2750,23104,54930.21
2751,23164,54950.18
2752,23216,54970.15
2753,23256,54990.13
2754,23284,55010.10
2755,23292,55030.08
2756,23280,55050.05
2757,23268,55070.03
2758,23260,55090.00
2759,23260,55109.98
2760,23276,55129.95
2761,23296,55149.93
2762,23324,55169.90
2763,23352,55189.88
2764,23380,55209.85
2765,23408,55229.82
2766,23440,55249.80
2767,23472,55269.77
2768,23504,55289.75
2769,23512,55309.72
2770,23460,55329.70
2771,23340,55349.67
2772,23184,55369.65
2773,23044,55389.62
2774,22956,55409.60
2775,22928,55429.57
2776,22940,55449.55
2777,22980,55469.52
2778,23032,55489.50
2779,23092,55509.47
2780,23160,55529.44
2781,23216,55549.42
2782,23248,55569.39
2783,23264,55589.37
2784,23260,55609.34
2785,23248,55629.32
2786,23240,55649.29
2787,23236,55669.27
2788,23244,55689.24
2789,23256,55709.22
2790,23272,55729.19
2791,23288,55749.17
2792,23308,55769.14
2793,23324,55789.11
2794,23344,55809.09
2795,23364,55829.06
2796,23392,55849.04
2797,23412,55869.01
2798,23400,55888.99
2799,23308,55908.96
2800,23156,55928.94
2801,22992,55948.91
2802,22868,55968.89
2803,22804,55988.86
2804,22796,56008.84
2805,22824,56028.81
2806,22868,56048.78
2807,22912,56068.76
2808,22972,56088.73
2809,23032,56108.71
2810,23080,56128.68
2811,23116,56148.66
2812,23136,56168.63
2813,23136,56188.61
2814,23136,56208.58
2815,23136,56228.56
2816,23136,56248.53
2817,23148,56268.51
2818,23164,56288.48
2819,23184,56308.45
2820,23192,56328.43
2821,23204,56348.40
2822,23212,56368.38
2823,23212,56388.35
2824,23212,56408.33
2825,23208,56428.30
2826,23196,56448.28
2827,23184,56468.25
2828,23188,56488.23
2829,23208,56508.20
2830,23172,56528.18
2831,23052,56548.15
2832,22876,56568.12
2833,22696,56588.10
2834,22572,56608.07
2835,22528,56628.05
2836,22540,56648.02
2837,22584,56668.00
2838,22628,56687.97
2839,22668,56707.95
2840,22700,56727.92
2841,22716,56747.90
2842,22724,56767.87
2843,22736,56787.85
2844,22744,56807.82
2845,22736,56827.79
2846,22724,56847.77
2847,22720,56867.74
2848,22712,56887.72
2849,22712,56907.69
2850,22728,56927.67
2851,22752,56947.64
2852,22784,56967.62
2853,22832,56987.59
2854,22872,57007.57
2855,22900,57027.54
2856,22920,57047.52
2857,22948,57067.49
2858,22976,57087.46
2859,22996,57107.44
2860,23024,57127.41
2861,23040,57147.39
2862,23056,57167.36
2863,23080,57187.34
2864,23100,57207.31
2865,23084,57227.29
2866,23000,57247.26
2867,22864,57267.24
2868,22728,57287.21
2869,22640,57307.19
2870,22608,57327.16
2871,22624,57347.13
2872,22656,57367.11
2873,22704,57387.08
2874,22752,57407.06
2875,22800,57427.03
2876,22852,57447.01
2877,22892,57466.98
2878,22924,57486.96
2879,22948,57506.93
2880,22960,57526.91
2881,22964,57546.88
2882,22972,57566.86
2883,22980,57586.83
2884,22992,57606.80
2885,23008,57626.78
2886,23036,57646.75
2887,23072,57666.73
2888,23108,57686.70
2889,23144,57706.68
2890,23176,57726.65
2891,23208,57746.63
2892,23240,57766.60
2893,23268,57786.58
2894,23296,57806.55
2895,23324,57826.53
2896,23356,57846.50
2897,23376,57866.47
2898,23396,57886.45
2899,23416,57906.42
2900,23440,57926.40
2901,23464,57946.37
2902,23440,57966.35
2903,23352,57986.32
2904,23196,58006.30
2905,23040,58026.27
2906,22908,58046.25
2907,22844,58066.22
2908,22832,58086.20
2909,22852,58106.17
2910,22892,58126.14
2911,22940,58146.12
2912,23004,58166.09
2913,23060,58186.07
2914,23104,58206.04
2915,23136,58226.02
2916,23152,58245.99
2917,23160,58265.97
2918,23160,58285.94
2919,23164,58305.92
2920,23168,58325.89
2921,23184,58345.87
2922,23196,58365.84
2923,23220,58385.81
2924,23240,58405.79
2925,23268,58425.76
2926,23292,58445.74
2927,23320,58465.71
2928,23348,58485.69
2929,23384,58505.66
2930,23408,58525.64
2931,23432,58545.61
2932,23456,58565.59
2933,23476,58585.56
2934,23496,58605.54
2935,23516,58625.51
2936,23532,58645.49
2937,23500,58665.46
2938,23408,58685.43
2939,23280,58705.41
2940,23140,58725.38
2941,23040,58745.36
2942,22988,58765.33
2943,22984,58785.31
2944,23008,58805.28
2945,23056,58825.26
2946,23112,58845.23
2947,23176,58865.21
2948,23232,58885.18
2949,23280,58905.16
2950,23308,58925.13
2951,23332,58945.10
2952,23332,58965.08
2953,23328,58985.05
2954,23324,59005.03
2955,23332,59025.00
2956,23336,59044.98
2957,23348,59064.95
2958,23364,59084.93
2959,23388,59104.90
2960,23412,59124.88
2961,23436,59144.85
2962,23460,59164.83
2963,23488,59184.80
2964,23516,59204.77
2965,23536,59224.75
2966,23568,59244.72
2967,23588,59264.70
2968,23600,59284.67
2969,23552,59304.65
2970,23448,59324.62
2971,23308,59344.60
2972,23176,59364.57
2973,23076,59384.55
2974,23024,59404.52
2975,23024,59424.50
2976,23052,59444.47
2977,23092,59464.44
2978,23148,59484.42
2979,23212,59504.39
2980,23264,59524.37
2981,23304,59544.34
2982,23328,59564.32
2983,23332,59584.29
2984,23320,59604.27
2985,23312,59624.24
2986,23300,59644.22
2987,23300,59664.19
2988,23304,59684.17
2989,23324,59704.14
2990,23348,59724.11
2991,23376,59744.09
2992,23408,59764.06
2993,23440,59784.04
2994,23468,59804.01
2995,23492,59823.99
2996,23524,59843.96
2997,23552,59863.94
2998,23572,59883.91
2999,23572,59903.89
