Sample_Index,IR_Value,Timestamp_ms
0,21164,0.00
1,21048,20.38
2,20892,40.76
3,20772,61.13
4,20752,81.51
5,20776,101.89
6,20804,122.27
7,20868,142.65
8,20940,163.02
9,21012,183.40
10,21088,203.78
11,21164,224.16
12,21200,244.54
13,21216,264.92
14,21212,285.29
15,21232,305.67
16,21276,326.05
17,21356,346.43
18,21448,366.81
19,21544,387.18
20,21644,407.56
21,21732,427.94
22,21812,448.32
23,21876,468.70
24,21916,489.07
25,21932,509.45
26,21936,529.83
27,21924,550.21
28,21904,570.59
29,21868,590.96
30,21844,611.34
31,21824,631.72
32,21800,652.10
33,21772,672.48
34,21748,692.86
35,21720,713.23
36,21692,733.61
37,21680,753.99
38,21664,774.37
39,21652,794.75
40,21636,815.12
41,21620,835.50
42,21604,855.88
43,21588,876.26
44,21568,896.64
45,21520,917.01
46,21452,937.39
47,21380,957.77
48,21316,978.15
49,21268,998.53
50,21232,1018.90
51,21216,1039.28
52,21208,1059.66
53,21220,1080.04
54,21236,1100.42
55,21252,1120.80
56,21260,1141.17
57,21252,1161.55
58,21240,1181.93
59,21224,1202.31
60,21208,1222.69
61,21200,1243.06
62,21192,1263.44
63,21192,1283.82
64,21196,1304.20
65,21204,1324.58
66,21220,1344.95
67,21220,1365.33
68,21212,1385.71
69,21208,1406.09
70,21200,1426.47
71,21196,1446.84
72,21204,1467.22
73,21204,1487.60
74,21200,1507.98
75,21200,1528.36
76,21180,1548.74
77,21132,1569.11
78,21076,1589.49
79,21020,1609.87
80,20992,1630.25
81,20984,1650.63
82,20996,1671.00
83,21028,1691.38
84,21068,1711.76
85,21120,1732.14
86,21176,1752.52
87,21236,1772.89
88,21296,1793.27
89,21348,1813.65
90,21388,1834.03
91,21420,1854.41
92,21444,1874.78
93,21460,1895.16
94,21480,1915.54
95,21500,1935.92
96,21516,1956.30
97,21524,1976.68
98,21532,1997.05
99,21540,2017.43
100,21544,2037.81
101,21540,2058.19
102,21540,2078.57
103,21536,2098.94
104,21536,2119.32
105,21532,2139.70
106,21512,2160.08
107,21460,2180.46
108,21376,2200.83
109,21296,2221.21
110,21228,2241.59
111,21180,2261.97
112,21148,2282.35
113,21128,2302.72
114,21132,2323.10
115,21144,2343.48
116,21184,2363.86
117,21236,2384.24
118,21296,2404.62
119,21348,2424.99
120,21396,2445.37
121,21428,2465.75
122,21448,2486.13
123,21472,2506.51
124,21492,2526.88
125,21520,2547.26
126,21552,2567.64
127,21584,2588.02
128,21616,2608.40
129,21652,2628.77
130,21680,2649.15
131,21712,2669.53
132,21740,2689.91
133,21768,2710.29
134,21796,2730.67
135,21812,2751.04
136,21788,2771.42
137,21720,2791.80
138,21620,2812.18
139,21520,2832.56
140,21432,2852.93
141,21380,2873.31
142,21352,2893.69
143,21336,2914.07
144,21320,2934.45
145,21312,2954.82
146,21316,2975.20
147,21324,2995.58
148,21336,3015.96
149,21340,3036.34
150,21336,3056.71
151,21328,3077.09
152,21324,3097.47
153,21320,3117.85
154,21336,3138.23
155,21356,3158.61
156,21368,3178.98
157,21376,3199.36
158,21380,3219.74
159,21372,3240.12
160,21368,3260.50
161,21356,3280.87
162,21348,3301.25
163,21344,3321.63
164,21332,3342.01
165,21324,3362.39
166,21324,3382.76
167,21308,3403.14
168,21252,3423.52
169,21160,3443.90
170,21052,3464.28
171,20972,3484.65
172,20920,3505.03
173,20908,3525.41
174,20904,3545.79
175,20916,3566.17
176,20948,3586.55
177,20992,3606.92
178,21052,3627.30
179,21120,3647.68
180,21184,3668.06
181,21232,3688.44
182,21272,3708.81
183,21296,3729.19
184,21320,3749.57
185,21348,3769.95
186,21376,3790.33
187,21408,3810.70
188,21440,3831.08
189,21468,3851.46
190,21492,3871.84
191,21512,3892.22
192,21540,3912.59
193,21568,3932.97
194,21596,3953.35
195,21616,3973.73
196,21640,3994.11
197,21660,4014.49
198,21676,4034.86
199,21692,4055.24
200,21712,4075.62
201,21728,4096.00
202,21740,4116.38
203,21732,4136.75
204,21680,4157.13
205,21592,4177.51
206,21496,4197.89
207,21420,4218.27
208,21372,4238.64
209,21352,4259.02
210,21356,4279.40
211,21376,4299.78
212,21400,4320.16
213,21428,4340.53
214,21456,4360.91
215,21484,4381.29
216,21508,4401.67
217,21528,4422.05
218,21536,4442.43
219,21544,4462.80
220,21548,4483.18
221,21552,4503.56
222,21556,4523.94
223,21568,4544.32
224,21580,4564.69
225,21600,4585.07
226,21628,4605.45
227,21652,4625.83
228,21672,4646.21
229,21700,4666.58
230,21724,4686.96
231,21756,4707.34
232,21780,4727.72
233,21800,4748.10
234,21824,4768.47
235,21840,4788.85
236,21856,4809.23
237,21872,4829.61
238,21888,4849.99
239,21900,4870.37
240,21916,4890.74
241,21932,4911.12
242,21940,4931.50
243,21908,4951.88
244,21836,4972.26
245,21744,4992.63
246,21652,5013.01
247,21580,5033.39
248,21536,5053.77
249,21524,5074.15
250,21528,5094.52
251,21544,5114.90
252,21568,5135.28
253,21596,5155.66
254,21620,5176.04
255,21640,5196.41
256,21656,5216.79
257,21664,5237.17
258,21664,5257.55
259,21660,5277.93
260,21656,5298.31
261,21656,5318.68
262,21660,5339.06
263,21668,5359.44
264,21684,5379.82
265,21696,5400.20
266,21716,5420.57
267,21740,5440.95
268,21756,5461.33
269,21784,5481.71
270,21800,5502.09
271,21824,5522.46
272,21844,5542.84
273,21864,5563.22
274,21876,5583.60
275,21892,5603.98
276,21908,5624.35
277,21920,5644.73
278,21936,5665.11
279,21944,5685.49
280,21948,5705.87
281,21916,5726.25
282,21848,5746.62
283,21764,5767.00
284,21684,5787.38
285,21620,5807.76
286,21588,5828.14
287,21584,5848.51
288,21588,5868.89
289,21604,5889.27
290,21628,5909.65
291,21652,5930.03
292,21684,5950.40
293,21704,5970.78
294,21716,5991.16
295,21720,6011.54
296,21716,6031.92
297,21704,6052.29
298,21700,6072.67
299,21696,6093.05
300,21696,6113.43
301,21708,6133.81
302,21716,6154.19
303,21736,6174.56
304,21752,6194.94
305,21776,6215.32
306,21800,6235.70
307,21816,6256.08
308,21832,6276.45
309,21856,6296.83
310,21880,6317.21
311,21896,6337.59
312,21912,6357.97
313,21928,6378.34
314,21920,6398.72
315,21868,6419.10
316,21796,6439.48
317,21720,6459.86
318,21660,6480.23
319,21620,6500.61
320,21604,6520.99
321,21608,6541.37
322,21624,6561.75
323,21652,6582.13
324,21680,6602.50
325,21712,6622.88
326,21740,6643.26
327,21756,6663.64
328,21764,6684.02
329,21760,6704.39
330,21752,6724.77
331,21744,6745.15
332,21736,6765.53
333,21736,6785.91
334,21740,6806.28
335,21752,6826.66
336,21764,6847.04
337,21784,6867.42
338,21804,6887.80
339,21820,6908.17
340,21836,6928.55
341,21852,6948.93
342,21864,6969.31
343,21880,6989.69
344,21892,7010.07
345,21872,7030.44
346,21812,7050.82
347,21728,7071.20
348,21644,7091.58
349,21580,7111.96
350,21540,7132.33
351,21528,7152.71
352,21540,7173.09
353,21556,7193.47
354,21584,7213.85
355,21612,7234.22
356,21644,7254.60
357,21672,7274.98
358,21692,7295.36
359,21696,7315.74
360,21696,7336.12
361,21692,7356.49
362,21684,7376.87
363,21680,7397.25
364,21684,7417.63
365,21692,7438.01
366,21704,7458.38
367,21716,7478.76
368,21732,7499.14
369,21748,7519.52
370,21760,7539.90
371,21772,7560.27
372,21784,7580.65
373,21796,7601.03
374,21812,7621.41
375,21824,7641.79
376,21844,7662.16
377,21844,7682.54
378,21804,7702.92
379,21720,7723.30
380,21624,7743.68
381,21536,7764.06
382,21476,7784.43
383,21440,7804.81
384,21440,7825.19
385,21452,7845.57
386,21472,7865.95
387,21496,7886.32
388,21528,7906.70
389,21560,7927.08
390,21580,7947.46
391,21600,7967.84
392,21608,7988.21
393,21612,8008.59
394,21612,8028.97
395,21612,8049.35
396,21612,8069.73
397,21620,8090.10
398,21632,8110.48
399,21652,8130.86
400,21672,8151.24
401,21692,8171.62
402,21716,8192.00
403,21740,8212.37
404,21760,8232.75
405,21784,8253.13
406,21804,8273.51
407,21828,8293.89
408,21848,8314.26
409,21864,8334.64
410,21884,8355.02
411,21896,8375.40
412,21880,8395.78
413,21816,8416.15
414,21712,8436.53
415,21600,8456.91
416,21500,8477.29
417,21440,8497.67
418,21412,8518.04
419,21404,8538.42
420,21416,8558.80
421,21432,8579.18
422,21452,8599.56
423,21476,8619.94
424,21500,8640.31
425,21520,8660.69
426,21532,8681.07
427,21544,8701.45
428,21540,8721.83
429,21540,8742.20
430,21540,8762.58
431,21540,8782.96
432,21552,8803.34
433,21564,8823.72
434,21584,8844.09
435,21608,8864.47
436,21632,8884.85
437,21656,8905.23
438,21680,8925.61
439,21708,8945.98
440,21732,8966.36
441,21756,8986.74
442,21776,9007.12
443,21800,9027.50
444,21816,9047.88
445,21832,9068.25
446,21852,9088.63
447,21868,9109.01
448,21872,9129.39
449,21844,9149.77
450,21772,9170.14
451,21664,9190.52
452,21568,9210.90
453,21492,9231.28
454,21444,9251.66
455,21436,9272.03
456,21440,9292.41
457,21452,9312.79
458,21480,9333.17
459,21504,9353.55
460,21532,9373.92
461,21560,9394.30
462,21572,9414.68
463,21584,9435.06
464,21584,9455.44
465,21580,9475.82
466,21572,9496.19
467,21572,9516.57
468,21576,9536.95
469,21584,9557.33
470,21596,9577.71
471,21620,9598.08
472,21640,9618.46
473,21664,9638.84
474,21684,9659.22
475,21708,9679.60
476,21736,9699.97
477,21752,9720.35
478,21768,9740.73
479,21788,9761.11
480,21804,9781.49
481,21824,9801.86
482,21840,9822.24
483,21852,9842.62
484,21840,9863.00
485,21784,9883.38
486,21696,9903.76
487,21600,9924.13
488,21524,9944.51
489,21476,9964.89
490,21460,9985.27
491,21464,10005.65
492,21488,10026.02
493,21512,10046.40
494,21540,10066.78
495,21576,10087.16
496,21596,10107.54
497,21608,10127.91
498,21612,10148.29
499,21604,10168.67
500,21592,10189.05
501,21584,10209.43
502,21576,10229.80
503,21580,10250.18
504,21588,10270.56
505,21604,10290.94
506,21620,10311.32
507,21640,10331.70
508,21660,10352.07
509,21680,10372.45
510,21700,10392.83
511,21712,10413.21
512,21736,10433.59
513,21756,10453.96
514,21772,10474.34
515,21788,10494.72
516,21804,10515.10
517,21812,10535.48
518,21772,10555.85
519,21692,10576.23
520,21588,10596.61
521,21492,10616.99
522,21424,10637.37
523,21392,10657.74
524,21388,10678.12
525,21392,10698.50
526,21416,10718.88
527,21444,10739.26
528,21472,10759.64
529,21500,10780.01
530,21524,10800.39
531,21540,10820.77
532,21548,10841.15
533,21544,10861.53
534,21544,10881.90
535,21540,10902.28
536,21540,10922.66
537,21544,10943.04
538,21556,10963.42
539,21572,10983.79
540,21588,11004.17
541,21612,11024.55
542,21628,11044.93
543,21648,11065.31
544,21672,11085.68
545,21696,11106.06
546,21716,11126.44
547,21740,11146.82
548,21756,11167.20
549,21772,11187.58
550,21788,11207.95
551,21804,11228.33
552,21808,11248.71
553,21776,11269.09
554,21692,11289.47
555,21588,11309.84
556,21480,11330.22
557,21408,11350.60
558,21368,11370.98
559,21356,11391.36
560,21368,11411.73
561,21384,11432.11
562,21412,11452.49
563,21440,11472.87
564,21472,11493.25
565,21496,11513.62
566,21516,11534.00
567,21528,11554.38
568,21524,11574.76
569,21512,11595.14
570,21504,11615.52
571,21500,11635.89
572,21504,11656.27
573,21512,11676.65
574,21528,11697.03
575,21548,11717.41
576,21568,11737.78
577,21588,11758.16
578,21612,11778.54
579,21632,11798.92
580,21652,11819.30
581,21664,11839.67
582,21684,11860.05
583,21696,11880.43
584,21708,11900.81
585,21716,11921.19
586,21684,11941.57
587,21608,11961.94
588,21504,11982.32
589,21404,12002.70
590,21324,12023.08
591,21288,12043.46
592,21280,12063.83
593,21288,12084.21
594,21312,12104.59
595,21344,12124.97
596,21376,12145.35
597,21408,12165.72
598,21436,12186.10
599,21452,12206.48
600,21452,12226.86
601,21448,12247.24
602,21432,12267.61
603,21420,12287.99
604,21416,12308.37
605,21416,12328.75
606,21428,12349.13
607,21444,12369.51
608,21468,12389.88
609,21492,12410.26
610,21524,12430.64
611,21544,12451.02
612,21568,12471.40
613,21592,12491.77
614,21612,12512.15
615,21636,12532.53
616,21656,12552.91
617,21664,12573.29
618,21644,12593.66
619,21568,12614.04
620,21460,12634.42
621,21356,12654.80
622,21284,12675.18
623,21248,12695.55
624,21236,12715.93
625,21252,12736.31
626,21272,12756.69
627,21304,12777.07
628,21336,12797.45
629,21368,12817.82
630,21396,12838.20
631,21412,12858.58
632,21416,12878.96
633,21420,12899.34
634,21416,12919.71
635,21408,12940.09
636,21408,12960.47
637,21416,12980.85
638,21428,13001.23
639,21444,13021.60
640,21468,13041.98
641,21492,13062.36
642,21516,13082.74
643,21540,13103.12
644,21564,13123.49
645,21588,13143.87
646,21612,13164.25
647,21632,13184.63
648,21652,13205.01
649,21668,13225.39
650,21688,13245.76
651,21700,13266.14
652,21716,13286.52
653,21732,13306.90
654,21740,13327.28
655,21720,13347.65
656,21648,13368.03
657,21528,13388.41
658,21408,13408.79
659,21312,13429.17
660,21256,13449.54
661,21236,13469.92
662,21244,13490.30
663,21260,13510.68
664,21288,13531.06
665,21316,13551.43
666,21348,13571.81
667,21376,13592.19
668,21400,13612.57
669,21416,13632.95
670,21424,13653.33
671,21428,13673.70
672,21428,13694.08
673,21432,13714.46
674,21440,13734.84
675,21448,13755.22
676,21464,13775.59
677,21484,13795.97
678,21508,13816.35
679,21536,13836.73
680,21560,13857.11
681,21584,13877.48
682,21608,13897.86
683,21632,13918.24
684,21656,13938.62
685,21680,13959.00
686,21704,13979.37
687,21720,13999.75
688,21736,14020.13
689,21752,14040.51
690,21768,14060.89
691,21780,14081.27
692,21796,14101.64
693,21812,14122.02
694,21808,14142.40
695,21752,14162.78
696,21652,14183.16
697,21528,14203.53
698,21424,14223.91
699,21348,14244.29
700,21308,14264.67
701,21300,14285.05
702,21316,14305.42
703,21336,14325.80
704,21356,14346.18
705,21380,14366.56
706,21412,14386.94
707,21440,14407.31
708,21460,14427.69
709,21468,14448.07
710,21464,14468.45
711,21464,14488.83
712,21464,14509.21
713,21468,14529.58
714,21484,14549.96
715,21504,14570.34
716,21532,14590.72
717,21564,14611.10
718,21596,14631.47
719,21624,14651.85
720,21652,14672.23
721,21680,14692.61
722,21708,14712.99
723,21736,14733.36
724,21760,14753.74
725,21784,14774.12
726,21804,14794.50
727,21824,14814.88
728,21848,14835.25
729,21860,14855.63
730,21836,14876.01
731,21760,14896.39
732,21648,14916.77
733,21540,14937.15
734,21460,14957.52
735,21420,14977.90
736,21412,14998.28
737,21424,15018.66
738,21452,15039.04
739,21484,15059.41
740,21524,15079.79
741,21556,15100.17
742,21588,15120.55
743,21612,15140.93
744,21620,15161.30
745,21620,15181.68
746,21608,15202.06
747,21604,15222.44
748,21596,15242.82
749,21600,15263.19
750,21608,15283.57
751,21620,15303.95
752,21636,15324.33
753,21656,15344.71
754,21680,15365.09
755,21700,15385.46
756,21720,15405.84
757,21744,15426.22
758,21764,15446.60
759,21784,15466.98
760,21808,15487.35
761,21832,15507.73
762,21848,15528.11
763,21868,15548.49
764,21856,15568.87
765,21776,15589.24
766,21656,15609.62
767,21536,15630.00
768,21440,15650.38
769,21388,15670.76
770,21376,15691.13
771,21388,15711.51
772,21416,15731.89
773,21448,15752.27
774,21480,15772.65
775,21512,15793.03
776,21544,15813.40
777,21560,15833.78
778,21560,15854.16
779,21552,15874.54
780,21536,15894.92
781,21520,15915.29
782,21508,15935.67
783,21496,15956.05
784,21500,15976.43
785,21504,15996.81
786,21524,16017.18
787,21540,16037.56
788,21568,16057.94
789,21588,16078.32
790,21612,16098.70
791,21640,16119.07
792,21668,16139.45
793,21692,16159.83
794,21712,16180.21
795,21736,16200.59
796,21756,16220.97
797,21776,16241.34
798,21792,16261.72
799,21812,16282.10
800,21824,16302.48
801,21844,16322.86
802,21860,16343.23
803,21840,16363.61
804,21764,16383.99
805,21640,16404.37
806,21508,16424.75
807,21400,16445.12
808,21340,16465.50
809,21316,16485.88
810,21320,16506.26
811,21344,16526.64
812,21376,16547.02
813,21412,16567.39
814,21448,16587.77
815,21480,16608.15
816,21504,16628.53
817,21520,16648.91
818,21524,16669.28
819,21520,16689.66
820,21512,16710.04
821,21508,16730.42
822,21504,16750.80
823,21508,16771.17
824,21520,16791.55
825,21532,16811.93
826,21556,16832.31
827,21580,16852.69
828,21608,16873.06
829,21636,16893.44
830,21668,16913.82
831,21692,16934.20
832,21716,16954.58
833,21740,16974.96
834,21764,16995.33
835,21784,17015.71
836,21800,17036.09
837,21816,17056.47
838,21828,17076.85
839,21840,17097.22
840,21860,17117.60
841,21876,17137.98
842,21860,17158.36
843,21796,17178.74
844,21692,17199.11
845,21580,17219.49
846,21484,17239.87
847,21428,17260.25
848,21408,17280.63
849,21412,17301.00
850,21432,17321.38
851,21464,17341.76
852,21504,17362.14
853,21536,17382.52
854,21572,17402.90
855,21596,17423.27
856,21616,17443.65
857,21624,17464.03
858,21624,17484.41
859,21624,17504.79
860,21624,17525.16
861,21628,17545.54
862,21640,17565.92
863,21660,17586.30
864,21684,17606.68
865,21704,17627.05
866,21732,17647.43
867,21764,17667.81
868,21792,17688.19
869,21820,17708.57
870,21848,17728.94
871,21876,17749.32
872,21908,17769.70
873,21928,17790.08
874,21952,17810.46
875,21972,17830.84
876,21992,17851.21
877,22012,17871.59
878,22032,17891.97
879,22040,17912.35
880,22004,17932.73
881,21944,17953.10
882,21860,17973.48
883,21784,17993.86
884,21728,18014.24
885,21700,18034.62
886,21700,18054.99
887,21708,18075.37
888,21728,18095.75
889,21756,18116.13
890,21780,18136.51
891,21808,18156.88
892,21836,18177.26
893,21856,18197.64
894,21872,18218.02
895,21880,18238.40
896,21888,18258.78
897,21892,18279.15
898,21900,18299.53
899,21912,18319.91
900,21928,18340.29
901,21948,18360.67
902,21972,18381.04
903,22000,18401.42
904,22024,18421.80
905,22052,18442.18
906,22084,18462.56
907,22112,18482.93
908,22140,18503.31
909,22168,18523.69
910,22192,18544.07
911,22216,18564.45
912,22240,18584.82
913,22260,18605.20
914,22284,18625.58
915,22308,18645.96
916,22328,18666.34
917,22348,18686.72
918,22376,18707.09
919,22396,18727.47
920,22420,18747.85
921,22428,18768.23
922,22408,18788.61
923,22360,18808.98
924,22304,18829.36
925,22244,18849.74
926,22196,18870.12
927,22164,18890.50
928,22152,18910.87
929,22156,18931.25
930,22164,18951.63
931,22176,18972.01
932,22188,18992.39
933,22200,19012.76
934,22216,19033.14
935,22228,19053.52
936,22236,19073.90
937,22240,19094.28
938,22248,19114.66
939,22256,19135.03
940,22256,19155.41
941,22268,19175.79
942,22276,19196.17
943,22288,19216.55
944,22304,19236.92
945,22320,19257.30
946,22340,19277.68
947,22360,19298.06
948,22380,19318.44
949,22404,19338.81
950,22420,19359.19
951,22440,19379.57
952,22460,19399.95
953,22480,19420.33
954,22500,19440.70
955,22512,19461.08
956,22528,19481.46
957,22544,19501.84
958,22560,19522.22
959,22576,19542.60
960,22588,19562.97
961,22604,19583.35
962,22620,19603.73
963,22632,19624.11
964,22616,19644.49
965,22580,19664.86
966,22544,19685.24
967,22500,19705.62
968,22468,19726.00
969,22440,19746.38
970,22432,19766.75
971,22428,19787.13
972,22428,19807.51
973,22432,19827.89
974,22444,19848.27
975,22460,19868.64
976,22468,19889.02
977,22472,19909.40
978,22476,19929.78
979,22476,19950.16
980,22476,19970.54
981,22468,19990.91
982,22468,20011.29
983,22472,20031.67
984,22476,20052.05
985,22484,20072.43
986,22496,20092.80
987,22504,20113.18
988,22516,20133.56
989,22528,20153.94
990,22540,20174.32
991,22548,20194.69
992,22560,20215.07
993,22572,20235.45
994,22584,20255.83
995,22596,20276.21
996,22608,20296.58
997,22616,20316.96
998,22628,20337.34
999,22640,20357.72
1000,22632,20378.10
1001,22612,20398.48
1002,22580,20418.85
1003,22540,20439.23
1004,22508,20459.61
1005,22480,20479.99
1006,22468,20500.37
1007,22460,20520.74
1008,22464,20541.12
1009,22468,20561.50
1010,22472,20581.88
1011,22484,20602.26
1012,22492,20622.63
1013,22500,20643.01
1014,22500,20663.39
1015,22500,20683.77
1016,22492,20704.15
1017,22488,20724.52
1018,22492,20744.90
1019,22492,20765.28
1020,22496,20785.66
1021,22500,20806.04
1022,22508,20826.42
1023,22512,20846.79
1024,22520,20867.17
1025,22532,20887.55
1026,22540,20907.93
1027,22552,20928.31
1028,22568,20948.68
1029,22580,20969.06
1030,22592,20989.44
1031,22600,21009.82
1032,22612,21030.20
1033,22624,21050.57
1034,22632,21070.95
1035,22640,21091.33
1036,22648,21111.71
1037,22636,21132.09
1038,22616,21152.47
1039,22576,21172.84
1040,22540,21193.22
1041,22504,21213.60
1042,22480,21233.98
1043,22464,21254.36
1044,22452,21274.73
1045,22448,21295.11
1046,22448,21315.49
1047,22452,21335.87
1048,22460,21356.25
1049,22464,21376.62
1050,22472,21397.00
1051,22476,21417.38
1052,22476,21437.76
1053,22476,21458.14
1054,22472,21478.51
1055,22468,21498.89
1056,22468,21519.27
1057,22468,21539.65
1058,22468,21560.03
1059,22476,21580.41
1060,22480,21600.78
1061,22484,21621.16
1062,22496,21641.54
1063,22508,21661.92
1064,22520,21682.30
1065,22532,21702.67
1066,22544,21723.05
1067,22548,21743.43
1068,22560,21763.81
1069,22568,21784.19
1070,22572,21804.56
1071,22584,21824.94
1072,22596,21845.32
1073,22592,21865.70
1074,22580,21886.08
1075,22548,21906.45
1076,22500,21926.83
1077,22452,21947.21
1078,22408,21967.59
1079,22372,21987.97
1080,22356,22008.35
1081,22344,22028.72
1082,22340,22049.10
1083,22340,22069.48
1084,22348,22089.86
1085,22356,22110.24
1086,22364,22130.61
1087,22364,22150.99
1088,22368,22171.37
1089,22364,22191.75
1090,22356,22212.13
1091,22348,22232.50
1092,22348,22252.88
1093,22344,22273.26
1094,22348,22293.64
1095,22352,22314.02
1096,22356,22334.39
1097,22364,22354.77
1098,22376,22375.15
1099,22384,22395.53
1100,22396,22415.91
1101,22404,22436.29
1102,22412,22456.66
1103,22420,22477.04
1104,22432,22497.42
1105,22440,22517.80
1106,22448,22538.18
1107,22460,22558.55
1108,22460,22578.93
1109,22444,22599.31
1110,22396,22619.69
1111,22340,22640.07
1112,22280,22660.44
1113,22224,22680.82
1114,22184,22701.20
1115,22164,22721.58
1116,22156,22741.96
1117,22156,22762.33
1118,22160,22782.71
1119,22176,22803.09
1120,22188,22823.47
1121,22200,22843.85
1122,22204,22864.23
1123,22204,22884.60
1124,22196,22904.98
1125,22188,22925.36
1126,22184,22945.74
1127,22180,22966.12
1128,22176,22986.49
1129,22180,23006.87
1130,22184,23027.25
1131,22192,23047.63
1132,22200,23068.01
1133,22212,23088.38
1134,22224,23108.76
1135,22236,23129.14
1136,22252,23149.52
1137,22268,23169.90
1138,22276,23190.27
1139,22292,23210.65
1140,22304,23231.03
1141,22316,23251.41
1142,22324,23271.79
1143,22320,23292.17
1144,22288,23312.54
1145,22228,23332.92
1146,22148,23353.30
1147,22064,23373.68
1148,21996,23394.06
1149,21944,23414.43
1150,21924,23434.81
1151,21912,23455.19
1152,21912,23475.57
1153,21916,23495.95
1154,21924,23516.32
1155,21936,23536.70
1156,21952,23557.08
1157,21956,23577.46
1158,21960,23597.84
1159,21960,23618.21
1160,21956,23638.59
1161,21956,23658.97
1162,21948,23679.35
1163,21956,23699.73
1164,21960,23720.11
1165,21968,23740.48
1166,21976,23760.86
1167,21992,23781.24
1168,22012,23801.62
1169,22028,23822.00
1170,22048,23842.37
1171,22068,23862.75
1172,22080,23883.13
1173,22100,23903.51
1174,22120,23923.89
1175,22132,23944.26
1176,22148,23964.64
1177,22164,23985.02
1178,22176,24005.40
1179,22184,24025.78
1180,22204,24046.15
1181,22212,24066.53
1182,22224,24086.91
1183,22200,24107.29
1184,22140,24127.67
1185,22048,24148.05
1186,21956,24168.42
1187,21872,24188.80
1188,21808,24209.18
1189,21772,24229.56
1190,21756,24249.94
1191,21756,24270.31
1192,21760,24290.69
1193,21768,24311.07
1194,21784,24331.45
1195,21800,24351.83
1196,21812,24372.20
1197,21816,24392.58
1198,21816,24412.96
1199,21812,24433.34
1200,21808,24453.72
1201,21804,24474.09
1202,21804,24494.47
1203,21808,24514.85
1204,21820,24535.23
1205,21832,24555.61
1206,21852,24575.99
1207,21868,24596.36
1208,21888,24616.74
1209,21912,24637.12
1210,21932,24657.50
1211,21956,24677.88
1212,21968,24698.25
1213,21992,24718.63
1214,22004,24739.01
1215,22024,24759.39
1216,22040,24779.77
1217,22052,24800.14
1218,22068,24820.52
1219,22080,24840.90
1220,22072,24861.28
1221,22024,24881.66
1222,21944,24902.03
1223,21852,24922.41
1224,21764,24942.79
1225,21700,24963.17
1226,21668,24983.55
1227,21660,25003.93
1228,21668,25024.30
1229,21680,25044.68
1230,21696,25065.06
1231,21716,25085.44
1232,21740,25105.82
1233,21752,25126.19
1234,21764,25146.57
1235,21768,25166.95
1236,21760,25187.33
1237,21756,25207.71
1238,21752,25228.08
1239,21752,25248.46
1240,21760,25268.84
1241,21768,25289.22
1242,21780,25309.60
1243,21796,25329.97
1244,21812,25350.35
1245,21832,25370.73
1246,21848,25391.11
1247,21868,25411.49
1248,21880,25431.87
1249,21900,25452.24
1250,21916,25472.62
1251,21932,25493.00
1252,21948,25513.38
1253,21968,25533.76
1254,21976,25554.13
1255,21952,25574.51
1256,21888,25594.89
1257,21796,25615.27
1258,21700,25635.65
1259,21628,25656.02
1260,21592,25676.40
1261,21576,25696.78
1262,21588,25717.16
1263,21608,25737.54
1264,21632,25757.92
1265,21660,25778.29
1266,21696,25798.67
1267,21720,25819.05
1268,21740,25839.43
1269,21756,25859.81
1270,21760,25880.18
1271,21760,25900.56
1272,21760,25920.94
1273,21760,25941.32
1274,21764,25961.70
1275,21772,25982.07
1276,21788,26002.45
1277,21800,26022.83
1278,21824,26043.21
1279,21844,26063.59
1280,21868,26083.96
1281,21888,26104.34
1282,21916,26124.72
1283,21940,26145.10
1284,21960,26165.48
1285,21984,26185.86
1286,22004,26206.23
1287,22020,26226.61
1288,22036,26246.99
1289,22052,26267.37
1290,22068,26287.75
1291,22084,26308.12
1292,22068,26328.50
1293,22008,26348.88
1294,21908,26369.26
1295,21788,26389.64
1296,21684,26410.01
1297,21624,26430.39
1298,21588,26450.77
1299,21580,26471.15
1300,21592,26491.53
1301,21612,26511.90
1302,21644,26532.28
1303,21672,26552.66
1304,21700,26573.04
1305,21724,26593.42
1306,21748,26613.80
1307,21756,26634.17
1308,21760,26654.55
1309,21760,26674.93
1310,21756,26695.31
1311,21756,26715.69
1312,21764,26736.06
1313,21776,26756.44
1314,21792,26776.82
1315,21816,26797.20
1316,21836,26817.58
1317,21860,26837.95
1318,21888,26858.33
1319,21908,26878.71
1320,21936,26899.09
1321,21956,26919.47
1322,21976,26939.84
1323,21992,26960.22
1324,22012,26980.60
1325,22028,27000.98
1326,22044,27021.36
1327,22060,27041.74
1328,22048,27062.11
1329,21992,27082.49
1330,21888,27102.87
1331,21776,27123.25
1332,21680,27143.63
1333,21616,27164.00
1334,21592,27184.38
1335,21588,27204.76
1336,21604,27225.14
1337,21632,27245.52
1338,21664,27265.89
1339,21696,27286.27
1340,21728,27306.65
1341,21756,27327.03
1342,21768,27347.41
1343,21772,27367.78
1344,21768,27388.16
1345,21764,27408.54
1346,21756,27428.92
1347,21756,27449.30
1348,21760,27469.68
1349,21776,27490.05
1350,21788,27510.43
1351,21808,27530.81
1352,21828,27551.19
1353,21848,27571.57
1354,21872,27591.94
1355,21900,27612.32
1356,21928,27632.70
1357,21948,27653.08
1358,21968,27673.46
1359,21984,27693.83
1360,21996,27714.21
1361,22000,27734.59
1362,21972,27754.97
1363,21892,27775.35
1364,21780,27795.72
1365,21676,27816.10
1366,21592,27836.48
1367,21552,27856.86
1368,21532,27877.24
1369,21548,27897.62
1370,21568,27917.99
1371,21604,27938.37
1372,21640,27958.75
1373,21676,27979.13
1374,21708,27999.51
1375,21728,28019.88
1376,21740,28040.26
1377,21740,28060.64
1378,21732,28081.02
1379,21728,28101.40
1380,21728,28121.77
1381,21732,28142.15
1382,21740,28162.53
1383,21760,28182.91
1384,21776,28203.29
1385,21804,28223.66
1386,21820,28244.04
1387,21844,28264.42
1388,21868,28284.80
1389,21892,28305.18
1390,21916,28325.56
1391,21940,28345.93
1392,21964,28366.31
1393,21988,28386.69
1394,22008,28407.07
1395,22028,28427.45
1396,22028,28447.82
1397,21976,28468.20
1398,21876,28488.58
1399,21748,28508.96
1400,21636,28529.34
1401,21552,28549.71
1402,21516,28570.09
1403,21504,28590.47
1404,21516,28610.85
1405,21540,28631.23
1406,21572,28651.60
1407,21604,28671.98
1408,21636,28692.36
1409,21664,28712.74
1410,21688,28733.12
1411,21696,28753.50
1412,21696,28773.87
1413,21692,28794.25
1414,21688,28814.63
1415,21684,28835.01
1416,21692,28855.39
1417,21704,28875.76
1418,21716,28896.14
1419,21736,28916.52
1420,21756,28936.90
1421,21784,28957.28
1422,21808,28977.65
1423,21836,28998.03
1424,21860,29018.41
1425,21888,29038.79
1426,21916,29059.17
1427,21944,29079.54
1428,21968,29099.92
1429,21988,29120.30
1430,22008,29140.68
1431,22016,29161.06
1432,21968,29181.44
1433,21868,29201.81
1434,21744,29222.19
1435,21628,29242.57
1436,21548,29262.95
1437,21504,29283.33
1438,21496,29303.70
1439,21512,29324.08
1440,21540,29344.46
1441,21568,29364.84
1442,21608,29385.22
1443,21640,29405.59
1444,21672,29425.97
1445,21696,29446.35
1446,21708,29466.73
1447,21708,29487.11
1448,21708,29507.48
1449,21700,29527.86
1450,21696,29548.24
1451,21700,29568.62
1452,21704,29589.00
1453,21712,29609.38
1454,21728,29629.75
1455,21748,29650.13
1456,21768,29670.51
1457,21792,29690.89
1458,21816,29711.27
1459,21844,29731.64
1460,21864,29752.02
1461,21884,29772.40
1462,21908,29792.78
1463,21928,29813.16
1464,21944,29833.53
1465,21928,29853.91
1466,21852,29874.29
1467,21740,29894.67
1468,21624,29915.05
1469,21532,29935.42
1470,21476,29955.80
1471,21460,29976.18
1472,21464,29996.56
1473,21492,30016.94
1474,21528,30037.32
1475,21568,30057.69
1476,21608,30078.07
1477,21644,30098.45
1478,21668,30118.83
1479,21684,30139.21
1480,21688,30159.58
1481,21676,30179.96
1482,21668,30200.34
1483,21660,30220.72
1484,21660,30241.10
1485,21664,30261.47
1486,21676,30281.85
1487,21688,30302.23
1488,21708,30322.61
1489,21732,30342.99
1490,21756,30363.37
1491,21784,30383.74
1492,21808,30404.12
1493,21836,30424.50
1494,21864,30444.88
1495,21892,30465.26
1496,21912,30485.63
1497,21892,30506.01
1498,21816,30526.39
1499,21696,30546.77
1500,21568,30567.15
1501,21476,30587.52
1502,21420,30607.90
1503,21400,30628.28
1504,21412,30648.66
1505,21440,30669.04
1506,21476,30689.41
1507,21512,30709.79
1508,21560,30730.17
1509,21596,30750.55
1510,21620,30770.93
1511,21636,30791.31
1512,21636,30811.68
1513,21636,30832.06
1514,21632,30852.44
1515,21628,30872.82
1516,21632,30893.20
1517,21644,30913.57
1518,21656,30933.95
1519,21676,30954.33
1520,21700,30974.71
1521,21724,30995.09
1522,21756,31015.46
1523,21776,31035.84
1524,21804,31056.22
1525,21828,31076.60
1526,21856,31096.98
1527,21880,31117.35
1528,21908,31137.73
1529,21916,31158.11
1530,21884,31178.49
1531,21788,31198.87
1532,21660,31219.25
1533,21528,31239.62
1534,21436,31260.00
1535,21380,31280.38
1536,21368,31300.76
1537,21380,31321.14
1538,21412,31341.51
1539,21448,31361.89
1540,21484,31382.27
1541,21524,31402.65
1542,21556,31423.03
1543,21576,31443.40
1544,21592,31463.78
1545,21596,31484.16
1546,21596,31504.54
1547,21584,31524.92
1548,21584,31545.29
1549,21584,31565.67
1550,21588,31586.05
1551,21604,31606.43
1552,21624,31626.81
1553,21644,31647.19
1554,21668,31667.56
1555,21700,31687.94
1556,21720,31708.32
1557,21748,31728.70
1558,21776,31749.08
1559,21792,31769.45
1560,21816,31789.83
1561,21836,31810.21
1562,21840,31830.59
1563,21788,31850.97
1564,21688,31871.34
1565,21560,31891.72
1566,21452,31912.10
1567,21380,31932.48
1568,21352,31952.86
1569,21348,31973.23
1570,21368,31993.61
1571,21400,32013.99
1572,21440,32034.37
1573,21484,32054.75
1574,21524,32075.13
1575,21556,32095.50
1576,21580,32115.88
1577,21592,32136.26
1578,21592,32156.64
1579,21592,32177.02
1580,21588,32197.39
1581,21588,32217.77
1582,21596,32238.15
1583,21612,32258.53
1584,21632,32278.91
1585,21656,32299.28
1586,21688,32319.66
1587,21716,32340.04
1588,21744,32360.42
1589,21772,32380.80
1590,21796,32401.17
1591,21820,32421.55
1592,21840,32441.93
1593,21860,32462.31
1594,21868,32482.69
1595,21840,32503.07
1596,21764,32523.44
1597,21660,32543.82
1598,21552,32564.20
1599,21472,32584.58
1600,21432,32604.96
1601,21420,32625.33
1602,21432,32645.71
1603,21452,32666.09
1604,21484,32686.47
1605,21516,32706.85
1606,21548,32727.22
1607,21572,32747.60
1608,21592,32767.98
1609,21608,32788.36
1610,21616,32808.74
1611,21620,32829.11
1612,21624,32849.49
1613,21632,32869.87
1614,21648,32890.25
1615,21664,32910.63
1616,21688,32931.01
1617,21712,32951.38
1618,21740,32971.76
1619,21764,32992.14
1620,21796,33012.52
1621,21828,33032.90
1622,21856,33053.27
1623,21884,33073.65
1624,21916,33094.03
1625,21948,33114.41
1626,21972,33134.79
1627,21996,33155.16
1628,21976,33175.54
1629,21916,33195.92
1630,21828,33216.30
1631,21744,33236.68
1632,21680,33257.05
1633,21640,33277.43
1634,21628,33297.81
1635,21632,33318.19
1636,21644,33338.57
1637,21660,33358.95
1638,21684,33379.32
1639,21708,33399.70
1640,21732,33420.08
1641,21756,33440.46
1642,21764,33460.84
1643,21772,33481.21
1644,21776,33501.59
1645,21780,33521.97
1646,21780,33542.35
1647,21788,33562.73
1648,21800,33583.10
1649,21812,33603.48
1650,21836,33623.86
1651,21856,33644.24
1652,21880,33664.62
1653,21908,33684.99
1654,21932,33705.37
1655,21960,33725.75
1656,21992,33746.13
1657,22016,33766.51
1658,22044,33786.89
1659,22072,33807.26
1660,22104,33827.64
1661,22132,33848.02
1662,22144,33868.40
1663,22120,33888.78
1664,22052,33909.15
1665,21964,33929.53
1666,21884,33949.91
1667,21820,33970.29
1668,21784,33990.67
1669,21776,34011.04
1670,21780,34031.42
1671,21796,34051.80
1672,21816,34072.18
1673,21836,34092.56
1674,21860,34112.93
1675,21888,34133.31
1676,21904,34153.69
1677,21916,34174.07
1678,21932,34194.45
1679,21928,34214.83
1680,21932,34235.20
1681,21932,34255.58
1682,21936,34275.96
1683,21944,34296.34
1684,21956,34316.72
1685,21976,34337.09
1686,21992,34357.47
1687,22012,34377.85
1688,22032,34398.23
1689,22056,34418.61
1690,22076,34438.98
1691,22096,34459.36
1692,22116,34479.74
1693,22136,34500.12
1694,22148,34520.50
1695,22164,34540.87
1696,22152,34561.25
1697,22100,34581.63
1698,22032,34602.01
1699,21956,34622.39
1700,21888,34642.77
1701,21848,34663.14
1702,21828,34683.52
1703,21828,34703.90
1704,21836,34724.28
1705,21856,34744.66
1706,21880,34765.03
1707,21896,34785.41
1708,21924,34805.79
1709,21940,34826.17
1710,21952,34846.55
1711,21960,34866.92
1712,21960,34887.30
1713,21960,34907.68
1714,21956,34928.06
1715,21960,34948.44
1716,21964,34968.82
1717,21972,34989.19
1718,21984,35009.57
1719,22000,35029.95
1720,22016,35050.33
1721,22032,35070.71
1722,22052,35091.08
1723,22076,35111.46
1724,22096,35131.84
1725,22116,35152.22
1726,22132,35172.60
1727,22152,35192.97
1728,22168,35213.35
1729,22156,35233.73
1730,22112,35254.11
1731,22044,35274.49
1732,21960,35294.86
1733,21884,35315.24
1734,21836,35335.62
1735,21812,35356.00
1736,21808,35376.38
1737,21816,35396.76
1738,21832,35417.13
1739,21852,35437.51
1740,21872,35457.89
1741,21892,35478.27
1742,21916,35498.65
1743,21932,35519.02
1744,21944,35539.40
1745,21952,35559.78
1746,21952,35580.16
1747,21960,35600.54
1748,21960,35620.91
1749,21972,35641.29
1750,21984,35661.67
1751,22000,35682.05
1752,22020,35702.43
1753,22044,35722.80
1754,22068,35743.18
1755,22092,35763.56
1756,22112,35783.94
1757,22136,35804.32
1758,22164,35824.70
1759,22188,35845.07
1760,22208,35865.45
1761,22224,35885.83
1762,22244,35906.21
1763,22236,35926.59
1764,22196,35946.96
1765,22132,35967.34
1766,22064,35987.72
1767,21996,36008.10
1768,21952,36028.48
1769,21928,36048.85
1770,21928,36069.23
1771,21936,36089.61
1772,21952,36109.99
1773,21972,36130.37
1774,22000,36150.74
1775,22020,36171.12
1776,22040,36191.50
1777,22056,36211.88
1778,22068,36232.26
1779,22080,36252.64
1780,22088,36273.01
1781,22092,36293.39
1782,22100,36313.77
1783,22108,36334.15
1784,22120,36354.53
1785,22136,36374.90
1786,22156,36395.28
1787,22172,36415.66
1788,22192,36436.04
1789,22216,36456.42
1790,22240,36476.79
1791,22260,36497.17
1792,22280,36517.55
1793,22304,36537.93
1794,22324,36558.31
1795,22344,36578.68
1796,22368,36599.06
1797,22384,36619.44
1798,22372,36639.82
1799,22332,36660.20
1800,22280,36680.58
1801,22228,36700.95
1802,22180,36721.33
1803,22156,36741.71
1804,22144,36762.09
1805,22148,36782.47
1806,22160,36802.84
1807,22180,36823.22
1808,22200,36843.60
1809,22224,36863.98
1810,22248,36884.36
1811,22260,36904.73
1812,22276,36925.11
1813,22284,36945.49
1814,22292,36965.87
1815,22296,36986.25
1816,22304,37006.62
1817,22312,37027.00
1818,22324,37047.38
1819,22336,37067.76
1820,22348,37088.14
1821,22364,37108.52
1822,22380,37128.89
1823,22396,37149.27
1824,22416,37169.65
1825,22436,37190.03
1826,22452,37210.41
1827,22472,37230.78
1828,22492,37251.16
1829,22516,37271.54
1830,22524,37291.92
1831,22508,37312.30
1832,22480,37332.67
1833,22444,37353.05
1834,22408,37373.43
1835,22380,37393.81
1836,22368,37414.19
1837,22372,37434.56
1838,22376,37454.94
1839,22388,37475.32
1840,22404,37495.70
1841,22428,37516.08
1842,22444,37536.46
1843,22468,37556.83
1844,22476,37577.21
1845,22488,37597.59
1846,22492,37617.97
1847,22500,37638.35
1848,22508,37658.72
1849,22516,37679.10
1850,22532,37699.48
1851,22544,37719.86
1852,22556,37740.24
1853,22568,37760.61
1854,22584,37780.99
1855,22600,37801.37
1856,22616,37821.75
1857,22632,37842.13
1858,22652,37862.50
1859,22664,37882.88
1860,22680,37903.26
1861,22696,37923.64
1862,22712,37944.02
1863,22720,37964.40
1864,22708,37984.77
1865,22688,38005.15
1866,22660,38025.53
1867,22632,38045.91
1868,22616,38066.29
1869,22608,38086.66
1870,22604,38107.04
1871,22612,38127.42
1872,22620,38147.80
1873,22636,38168.18
1874,22648,38188.55
1875,22664,38208.93
1876,22668,38229.31
1877,22680,38249.69
1878,22684,38270.07
1879,22688,38290.44
1880,22688,38310.82
1881,22700,38331.20
1882,22704,38351.58
1883,22708,38371.96
1884,22720,38392.34
1885,22732,38412.71
1886,22740,38433.09
1887,22752,38453.47
1888,22764,38473.85
1889,22780,38494.23
1890,22792,38514.60
1891,22800,38534.98
1892,22816,38555.36
1893,22828,38575.74
1894,22844,38596.12
1895,22856,38616.49
1896,22864,38636.87
1897,22864,38657.25
1898,22844,38677.63
1899,22824,38698.01
1900,22804,38718.38
1901,22792,38738.76
1902,22788,38759.14
1903,22792,38779.52
1904,22796,38799.90
1905,22804,38820.28
1906,22820,38840.65
1907,22828,38861.03
1908,22836,38881.41
1909,22848,38901.79
1910,22856,38922.17
1911,22856,38942.54
1912,22856,38962.92
1913,22860,38983.30
1914,22856,39003.68
1915,22860,39024.06
1916,22864,39044.43
1917,22868,39064.81
1918,22876,39085.19
1919,22888,39105.57
1920,22892,39125.95
1921,22900,39146.32
1922,22908,39166.70
1923,22912,39187.08
1924,22924,39207.46
1925,22932,39227.84
1926,22940,39248.22
1927,22952,39268.59
1928,22956,39288.97
1929,22948,39309.35
1930,22924,39329.73
1931,22908,39350.11
1932,22896,39370.48
1933,22892,39390.86
1934,22888,39411.24
1935,22892,39431.62
1936,22904,39452.00
1937,22912,39472.37
1938,22920,39492.75
1939,22932,39513.13
1940,22948,39533.51
1941,22952,39553.89
1942,22952,39574.27
1943,22956,39594.64
1944,22956,39615.02
1945,22956,39635.40
1946,22956,39655.78
1947,22960,39676.16
1948,22960,39696.53
1949,22968,39716.91
1950,22976,39737.29
1951,22988,39757.67
1952,22992,39778.05
1953,23004,39798.42
1954,23012,39818.80
1955,23020,39839.18
1956,23024,39859.56
1957,23028,39879.94
1958,23040,39900.31
1959,23036,39920.69
1960,23024,39941.07
1961,23008,39961.45
1962,22988,39981.83
1963,22968,40002.21
1964,22960,40022.58
1965,22960,40042.96
1966,22960,40063.34
1967,22968,40083.72
1968,22972,40104.10
1969,22984,40124.47
1970,22996,40144.85
1971,23000,40165.23
1972,23004,40185.61
1973,23012,40205.99
1974,23012,40226.36
1975,23016,40246.74
1976,23016,40267.12
1977,23020,40287.50
1978,23024,40307.88
1979,23032,40328.25
1980,23036,40348.63
1981,23044,40369.01
1982,23052,40389.39
1983,23060,40409.77
1984,23068,40430.15
1985,23076,40450.52
1986,23084,40470.90
1987,23096,40491.28
1988,23104,40511.66
1989,23108,40532.04
1990,23112,40552.41
1991,23096,40572.79
1992,23076,40593.17
1993,23060,40613.55
1994,23040,40633.93
1995,23032,40654.30
1996,23028,40674.68
1997,23032,40695.06
1998,23040,40715.44
1999,23052,40735.82
2000,23056,40756.19
2001,23064,40776.57
2002,23072,40796.95
2003,23072,40817.33
2004,23076,40837.71
2005,23076,40858.09
2006,23072,40878.46
2007,23072,40898.84
2008,23072,40919.22
2009,23076,40939.60
2010,23080,40959.98
2011,23084,40980.35
2012,23092,41000.73
2013,23100,41021.11
2014,23100,41041.49
2015,23108,41061.87
2016,23116,41082.24
2017,23124,41102.62
2018,23128,41123.00
2019,23136,41143.38
2020,23136,41163.76
2021,23124,41184.13
2022,23104,41204.51
2023,23088,41224.89
2024,23076,41245.27
2025,23068,41265.65
2026,23068,41286.03
2027,23072,41306.40
2028,23076,41326.78
2029,23084,41347.16
2030,23092,41367.54
2031,23100,41387.92
2032,23108,41408.29
2033,23116,41428.67
2034,23116,41449.05
2035,23116,41469.43
2036,23112,41489.81
2037,23112,41510.18
2038,23112,41530.56
2039,23116,41550.94
2040,23116,41571.32
2041,23124,41591.70
2042,23124,41612.07
2043,23128,41632.45
2044,23136,41652.83
2045,23140,41673.21
2046,23148,41693.59
2047,23156,41713.97
2048,23160,41734.34
2049,23144,41754.72
2050,23120,41775.10
2051,23092,41795.48
2052,23068,41815.86
2053,23052,41836.23
2054,23040,41856.61
2055,23036,41876.99
2056,23036,41897.37
2057,23040,41917.75
2058,23048,41938.12
2059,23052,41958.50
2060,23052,41978.88
2061,23056,41999.26
2062,23052,42019.64
2063,23044,42040.01
2064,23040,42060.39
2065,23036,42080.77
2066,23040,42101.15
2067,23040,42121.53
2068,23040,42141.91
2069,23044,42162.28
2070,23048,42182.66
2071,23052,42203.04
2072,23064,42223.42
2073,23064,42243.80
2074,23068,42264.17
2075,23072,42284.55
2076,23068,42304.93
2077,23048,42325.31
2078,23024,42345.69
2079,22992,42366.06
2080,22972,42386.44
2081,22948,42406.82
2082,22936,42427.20
2083,22932,42447.58
2084,22932,42467.95
2085,22940,42488.33
2086,22944,42508.71
2087,22956,42529.09
2088,22956,42549.47
2089,22960,42569.85
2090,22964,42590.22
2091,22960,42610.60
2092,22956,42630.98
2093,22952,42651.36
2094,22948,42671.74
2095,22948,42692.11
2096,22948,42712.49
2097,22948,42732.87
2098,22956,42753.25
2099,22956,42773.63
2100,22960,42794.00
2101,22968,42814.38
2102,22972,42834.76
2103,22980,42855.14
2104,22972,42875.52
2105,22944,42895.89
2106,22904,42916.27
2107,22876,42936.65
2108,22848,42957.03
2109,22828,42977.41
2110,22812,42997.79
2111,22808,43018.16
2112,22812,43038.54
2113,22820,43058.92
2114,22824,43079.30
2115,22832,43099.68
2116,22840,43120.05
2117,22844,43140.43
2118,22848,43160.81
2119,22848,43181.19
2120,22852,43201.57
2121,22852,43221.94
2122,22848,43242.32
2123,22856,43262.70
2124,22856,43283.08
2125,22864,43303.46
2126,22872,43323.83
2127,22880,43344.21
2128,22884,43364.59
2129,22896,43384.97
2130,22908,43405.35
2131,22916,43425.73
2132,22916,43446.10
2133,22908,43466.48
2134,22880,43486.86
2135,22844,43507.24
2136,22812,43527.62
2137,22784,43547.99
2138,22764,43568.37
2139,22752,43588.75
2140,22752,43609.13
2141,22752,43629.51
2142,22756,43649.88
2143,22764,43670.26
2144,22768,43690.64
2145,22776,43711.02
2146,22780,43731.40
2147,22780,43751.77
2148,22784,43772.15
2149,22784,43792.53
2150,22780,43812.91
2151,22780,43833.29
2152,22784,43853.67
2153,22792,43874.04
2154,22796,43894.42
2155,22804,43914.80
2156,22812,43935.18
2157,22824,43955.56
2158,22832,43975.93
2159,22844,43996.31
2160,22856,44016.69
2161,22864,44037.07
2162,22860,44057.45
2163,22832,44077.82
2164,22796,44098.20
2165,22756,44118.58
2166,22724,44138.96
2167,22700,44159.34
2168,22684,44179.72
2169,22680,44200.09
2170,22680,44220.47
2171,22688,44240.85
2172,22696,44261.23
2173,22704,44281.61
2174,22716,44301.98
2175,22720,44322.36
2176,22720,44342.74
2177,22716,44363.12
2178,22716,44383.50
2179,22716,44403.87
2180,22708,44424.25
2181,22712,44444.63
2182,22716,44465.01
2183,22724,44485.39
2184,22732,44505.76
2185,22740,44526.14
2186,22752,44546.52
2187,22760,44566.90
2188,22772,44587.28
2189,22780,44607.66
2190,22788,44628.03
2191,22792,44648.41
2192,22792,44668.79
2193,22768,44689.17
2194,22724,44709.55
2195,22672,44729.92
2196,22624,44750.30
2197,22588,44770.68
2198,22564,44791.06
2199,22556,44811.44
2200,22552,44831.81
2201,22560,44852.19
2202,22572,44872.57
2203,22580,44892.95
2204,22592,44913.33
2205,22604,44933.70
2206,22612,44954.08
2207,22616,44974.46
2208,22616,44994.84
2209,22616,45015.22
2210,22620,45035.60
2211,22620,45055.97
2212,22628,45076.35
2213,22636,45096.73
2214,22648,45117.11
2215,22660,45137.49
2216,22672,45157.86
2217,22688,45178.24
2218,22700,45198.62
2219,22716,45219.00
2220,22732,45239.38
2221,22748,45259.75
2222,22764,45280.13
2223,22776,45300.51
2224,22792,45320.89
2225,22792,45341.27
2226,22780,45361.64
2227,22736,45382.02
2228,22688,45402.40
2229,22628,45422.78
2230,22580,45443.16
2231,22544,45463.54
2232,22528,45483.91
2233,22520,45504.29
2234,22528,45524.67
2235,22536,45545.05
2236,22548,45565.43
2237,22560,45585.80
2238,22572,45606.18
2239,22576,45626.56
2240,22588,45646.94
2241,22592,45667.32
2242,22592,45687.69
2243,22592,45708.07
2244,22596,45728.45
2245,22600,45748.83
2246,22604,45769.21
2247,22612,45789.58
2248,22620,45809.96
2249,22628,45830.34
2250,22644,45850.72
2251,22660,45871.10
2252,22672,45891.48
2253,22692,45911.85
2254,22708,45932.23
2255,22724,45952.61
2256,22736,45972.99
2257,22748,45993.37
2258,22768,46013.74
2259,22776,46034.12
2260,22792,46054.50
2261,22788,46074.88
2262,22764,46095.26
2263,22716,46115.63
2264,22660,46136.01
2265,22596,46156.39
2266,22548,46176.77
2267,22524,46197.15
2268,22512,46217.52
2269,22508,46237.90
2270,22520,46258.28
2271,22532,46278.66
2272,22548,46299.04
2273,22568,46319.42
2274,22584,46339.79
2275,22592,46360.17
2276,22600,46380.55
2277,22596,46400.93
2278,22600,46421.31
2279,22592,46441.68
2280,22592,46462.06
2281,22592,46482.44
2282,22596,46502.82
2283,22600,46523.20
2284,22608,46543.57
2285,22624,46563.95
2286,22632,46584.33
2287,22644,46604.71
2288,22660,46625.09
2289,22676,46645.46
2290,22688,46665.84
2291,22700,46686.22
2292,22716,46706.60
2293,22732,46726.98
2294,22740,46747.36
2295,22748,46767.73
2296,22728,46788.11
2297,22684,46808.49
2298,22620,46828.87
2299,22544,46849.25
2300,22488,46869.62
2301,22452,46890.00
2302,22432,46910.38
2303,22428,46930.76
2304,22436,46951.14
2305,22448,46971.51
2306,22468,46991.89
2307,22492,47012.27
2308,22508,47032.65
2309,22520,47053.03
2310,22520,47073.40
2311,22528,47093.78
2312,22528,47114.16
2313,22528,47134.54
2314,22528,47154.92
2315,22528,47175.30
2316,22536,47195.67
2317,22548,47216.05
2318,22556,47236.43
2319,22572,47256.81
2320,22588,47277.19
2321,22604,47297.56
2322,22624,47317.94
2323,22640,47338.32
2324,22664,47358.70
2325,22676,47379.08
2326,22688,47399.45
2327,22708,47419.83
2328,22720,47440.21
2329,22736,47460.59
2330,22728,47480.97
2331,22700,47501.34
2332,22644,47521.72
2333,22568,47542.10
2334,22496,47562.48
2335,22440,47582.86
2336,22408,47603.24
2337,22392,47623.61
2338,22392,47643.99
2339,22400,47664.37
2340,22420,47684.75
2341,22440,47705.13
2342,22460,47725.50
2343,22476,47745.88
2344,22488,47766.26
2345,22496,47786.64
2346,22500,47807.02
2347,22504,47827.39
2348,22504,47847.77
2349,22504,47868.15
2350,22508,47888.53
2351,22520,47908.91
2352,22528,47929.28
2353,22548,47949.66
2354,22556,47970.04
2355,22572,47990.42
2356,22592,48010.80
2357,22612,48031.18
2358,22632,48051.55
2359,22648,48071.93
2360,22668,48092.31
2361,22688,48112.69
2362,22704,48133.07
2363,22720,48153.44
2364,22716,48173.82
2365,22680,48194.20
2366,22620,48214.58
2367,22548,48234.96
2368,22476,48255.33
2369,22424,48275.71
2370,22392,48296.09
2371,22384,48316.47
2372,22388,48336.85
2373,22396,48357.22
2374,22416,48377.60
2375,22436,48397.98
2376,22452,48418.36
2377,22472,48438.74
2378,22484,48459.12
2379,22488,48479.49
2380,22488,48499.87
2381,22492,48520.25
2382,22484,48540.63
2383,22488,48561.01
2384,22492,48581.38
2385,22496,48601.76
2386,22504,48622.14
2387,22520,48642.52
2388,22532,48662.90
2389,22548,48683.27
2390,22564,48703.65
2391,22584,48724.03
2392,22600,48744.41
2393,22620,48764.79
2394,22636,48785.17
2395,22652,48805.54
2396,22636,48825.92
2397,22592,48846.30
2398,22528,48866.68
2399,22452,48887.06
2400,22388,48907.43
2401,22348,48927.81
2402,22328,48948.19
2403,22324,48968.57
2404,22332,48988.95
2405,22348,49009.32
2406,22376,49029.70
2407,22400,49050.08
2408,22420,49070.46
2409,22436,49090.84
2410,22448,49111.21
2411,22448,49131.59
2412,22452,49151.97
2413,22452,49172.35
2414,22456,49192.73
2415,22460,49213.11
2416,22464,49233.48
2417,22468,49253.86
2418,22476,49274.24
2419,22492,49294.62
2420,22504,49315.00
2421,22520,49335.37
2422,22532,49355.75
2423,22548,49376.13
2424,22568,49396.51
2425,22588,49416.89
2426,22596,49437.26
2427,22580,49457.64
2428,22540,49478.02
2429,22472,49498.40
2430,22400,49518.78
2431,22340,49539.15
2432,22304,49559.53
2433,22284,49579.91
2434,22280,49600.29
2435,22300,49620.67
2436,22320,49641.05
2437,22348,49661.42
2438,22376,49681.80
2439,22400,49702.18
2440,22416,49722.56
2441,22428,49742.94
2442,22436,49763.31
2443,22440,49783.69
2444,22444,49804.07
2445,22448,49824.45
2446,22456,49844.83
2447,22464,49865.20
2448,22480,49885.58
2449,22496,49905.96
2450,22512,49926.34
2451,22536,49946.72
2452,22552,49967.09
2453,22572,49987.47
2454,22592,50007.85
2455,22608,50028.23
2456,22632,50048.61
2457,22632,50068.99
2458,22612,50089.36
2459,22556,50109.74
2460,22492,50130.12
2461,22420,50150.50
2462,22364,50170.88
2463,22336,50191.25
2464,22324,50211.63
2465,22324,50232.01
2466,22336,50252.39
2467,22352,50272.77
2468,22372,50293.14
2469,22392,50313.52
2470,22412,50333.90
2471,22428,50354.28
2472,22440,50374.66
2473,22448,50395.03
2474,22448,50415.41
2475,22452,50435.79
2476,22452,50456.17
2477,22456,50476.55
2478,22464,50496.93
2479,22476,50517.30
2480,22492,50537.68
2481,22512,50558.06
2482,22528,50578.44
2483,22548,50598.82
2484,22564,50619.19
2485,22588,50639.57
2486,22604,50659.95
2487,22624,50680.33
2488,22624,50700.71
2489,22592,50721.08
2490,22536,50741.46
2491,22464,50761.84
2492,22396,50782.22
2493,22348,50802.60
2494,22320,50822.97
2495,22316,50843.35
2496,22316,50863.73
2497,22328,50884.11
2498,22348,50904.49
2499,22368,50924.87
2500,22392,50945.24
2501,22408,50965.62
2502,22424,50986.00
2503,22432,51006.38
2504,22436,51026.76
2505,22436,51047.13
2506,22432,51067.51
2507,22436,51087.89
2508,22436,51108.27
2509,22448,51128.65
2510,22456,51149.02
2511,22468,51169.40
2512,22480,51189.78
2513,22496,51210.16
2514,22508,51230.54
2515,22524,51250.91
2516,22544,51271.29
2517,22560,51291.67
2518,22552,51312.05
2519,22512,51332.43
2520,22444,51352.81
2521,22368,51373.18
2522,22296,51393.56
2523,22240,51413.94
2524,22212,51434.32
2525,22208,51454.70
2526,22208,51475.07
2527,22220,51495.45
2528,22244,51515.83
2529,22268,51536.21
2530,22288,51556.59
2531,22300,51576.96
2532,22312,51597.34
2533,22312,51617.72
2534,22312,51638.10
2535,22312,51658.48
2536,22312,51678.85
2537,22320,51699.23
2538,22328,51719.61
2539,22340,51739.99
2540,22352,51760.37
2541,22368,51780.75
2542,22384,51801.12
2543,22404,51821.50
2544,22424,51841.88
2545,22440,51862.26
2546,22456,51882.64
2547,22480,51903.01
2548,22480,51923.39
2549,22448,51943.77
2550,22380,51964.15
2551,22300,51984.53
2552,22220,52004.90
2553,22164,52025.28
2554,22124,52045.66
2555,22116,52066.04
2556,22116,52086.42
2557,22132,52106.79
2558,22148,52127.17
2559,22172,52147.55
2560,22188,52167.93
2561,22208,52188.31
2562,22224,52208.69
2563,22224,52229.06
2564,22228,52249.44
2565,22228,52269.82
2566,22228,52290.20
2567,22228,52310.58
2568,22236,52330.95
2569,22244,52351.33
2570,22260,52371.71
2571,22272,52392.09
2572,22296,52412.47
2573,22312,52432.84
2574,22332,52453.22
2575,22356,52473.60
2576,22376,52493.98
2577,22396,52514.36
2578,22416,52534.73
2579,22428,52555.11
2580,22408,52575.49
2581,22352,52595.87
2582,22268,52616.25
2583,22180,52636.63
2584,22116,52657.00
2585,22076,52677.38
2586,22056,52697.76
2587,22060,52718.14
2588,22072,52738.52
2589,22088,52758.89
2590,22112,52779.27
2591,22136,52799.65
2592,22156,52820.03
2593,22168,52840.41
2594,22180,52860.78
2595,22184,52881.16
2596,22184,52901.54
2597,22188,52921.92
2598,22188,52942.30
2599,22192,52962.67
2600,22200,52983.05
2601,22212,53003.43
2602,22224,53023.81
2603,22236,53044.19
2604,22256,53064.57
2605,22276,53084.94
2606,22292,53105.32
2607,22312,53125.70
2608,22332,53146.08
2609,22352,53166.46
2610,22376,53186.83
2611,22380,53207.21
2612,22356,53227.59
2613,22292,53247.97
2614,22208,53268.35
2615,22120,53288.72
2616,22052,53309.10
2617,22016,53329.48
2618,22004,53349.86
2619,22012,53370.24
2620,22028,53390.62
2621,22052,53410.99
2622,22076,53431.37
2623,22104,53451.75
2624,22124,53472.13
2625,22140,53492.51
2626,22144,53512.88
2627,22144,53533.26
2628,22144,53553.64
2629,22140,53574.02
2630,22144,53594.40
2631,22144,53614.77
2632,22152,53635.15
2633,22160,53655.53
2634,22180,53675.91
2635,22192,53696.29
2636,22208,53716.66
2637,22228,53737.04
2638,22248,53757.42
2639,22268,53777.80
2640,22284,53798.18
2641,22304,53818.56
2642,22304,53838.93
2643,22264,53859.31
2644,22192,53879.69
2645,22100,53900.07
2646,22016,53920.45
2647,21960,53940.82
2648,21936,53961.20
2649,21928,53981.58
2650,21936,54001.96
2651,21956,54022.34
2652,21984,54042.71
2653,22012,54063.09
2654,22032,54083.47
2655,22056,54103.85
2656,22072,54124.23
2657,22076,54144.60
2658,22076,54164.98
2659,22072,54185.36
2660,22072,54205.74
2661,22076,54226.12
2662,22084,54246.50
2663,22100,54266.87
2664,22116,54287.25
2665,22136,54307.63
2666,22160,54328.01
2667,22180,54348.39
2668,22204,54368.76
2669,22228,54389.14
2670,22248,54409.52
2671,22272,54429.90
2672,22296,54450.28
2673,22300,54470.65
2674,22264,54491.03
2675,22196,54511.41
2676,22108,54531.79
2677,22028,54552.17
2678,21968,54572.54
2679,21940,54592.92
2680,21932,54613.30
2681,21944,54633.68
2682,21960,54654.06
2683,21984,54674.44
2684,22012,54694.81
2685,22036,54715.19
2686,22064,54735.57
2687,22080,54755.95
2688,22088,54776.33
2689,22092,54796.70
2690,22092,54817.08
2691,22092,54837.46
2692,22096,54857.84
2693,22104,54878.22
2694,22112,54898.59
2695,22124,54918.97
2696,22144,54939.35
2697,22156,54959.73
2698,22180,54980.11
2699,22204,55000.48
2700,22224,55020.86
2701,22244,55041.24
2702,22268,55061.62
2703,22284,55082.00
2704,22308,55102.38
2705,22316,55122.75
2706,22292,55143.13
2707,22224,55163.51
2708,22136,55183.89
2709,22048,55204.27
2710,21984,55224.64
2711,21952,55245.02
2712,21936,55265.40
2713,21948,55285.78
2714,21968,55306.16
2715,21984,55326.53
2716,22016,55346.91
2717,22044,55367.29
2718,22064,55387.67
2719,22080,55408.05
2720,22096,55428.42
2721,22100,55448.80
2722,22100,55469.18
2723,22104,55489.56
2724,22104,55509.94
2725,22108,55530.32
2726,22120,55550.69
2727,22136,55571.07
2728,22148,55591.45
2729,22168,55611.83
2730,22188,55632.21
2731,22212,55652.58
2732,22232,55672.96
2733,22256,55693.34
2734,22276,55713.72
2735,22300,55734.10
2736,22316,55754.47
2737,22324,55774.85
2738,22296,55795.23
2739,22228,55815.61
2740,22144,55835.99
2741,22052,55856.36
2742,21988,55876.74
2743,21956,55897.12
2744,21948,55917.50
2745,21960,55937.88
2746,21980,55958.26
2747,22004,55978.63
2748,22028,55999.01
2749,22060,56019.39
2750,22080,56039.77
2751,22096,56060.15
2752,22108,56080.52
2753,22112,56100.90
2754,22112,56121.28
2755,22112,56141.66
2756,22112,56162.04
2757,22120,56182.41
2758,22128,56202.79
2759,22144,56223.17
2760,22156,56243.55
2761,22176,56263.93
2762,22196,56284.30
2763,22212,56304.68
2764,22236,56325.06
2765,22256,56345.44
2766,22276,56365.82
2767,22300,56386.20
2768,22312,56406.57
2769,22292,56426.95
2770,22236,56447.33
2771,22148,56467.71
2772,22056,56488.09
2773,21984,56508.46
2774,21940,56528.84
2775,21928,56549.22
2776,21928,56569.60
2777,21944,56589.98
2778,21972,56610.35
2779,21996,56630.73
2780,22028,56651.11
2781,22052,56671.49
2782,22068,56691.87
2783,22076,56712.24
2784,22080,56732.62
2785,22076,56753.00
2786,22076,56773.38
2787,22076,56793.76
2788,22088,56814.14
2789,22096,56834.51
2790,22112,56854.89
2791,22124,56875.27
2792,22148,56895.65
2793,22164,56916.03
2794,22180,56936.40
2795,22204,56956.78
2796,22228,56977.16
2797,22252,56997.54
2798,22272,57017.92
2799,22280,57038.29
2800,22252,57058.67
2801,22180,57079.05
2802,22088,57099.43
2803,21996,57119.81
2804,21932,57140.18
2805,21896,57160.56
2806,21888,57180.94
2807,21896,57201.32
2808,21920,57221.70
2809,21948,57242.08
2810,21976,57262.45
2811,22012,57282.83
2812,22032,57303.21
2813,22052,57323.59
2814,22068,57343.97
2815,22068,57364.34
2816,22068,57384.72
2817,22072,57405.10
2818,22080,57425.48
2819,22088,57445.86
2820,22104,57466.23
2821,22120,57486.61
2822,22136,57506.99
2823,22156,57527.37
2824,22176,57547.75
2825,22200,57568.12
2826,22220,57588.50
2827,22240,57608.88
2828,22260,57629.26
2829,22280,57649.64
2830,22304,57670.02
2831,22300,57690.39
2832,22252,57710.77
2833,22172,57731.15
2834,22076,57751.53
2835,21988,57771.91
2836,21924,57792.28
2837,21900,57812.66
2838,21888,57833.04
2839,21904,57853.42
2840,21932,57873.80
2841,21960,57894.17
2842,21996,57914.55
2843,22024,57934.93
2844,22052,57955.31
2845,22068,57975.69
2846,22076,57996.07
2847,22080,58016.44
2848,22080,58036.82
2849,22080,58057.20
2850,22084,58077.58
2851,22096,58097.96
2852,22108,58118.33
2853,22124,58138.71
2854,22148,58159.09
2855,22168,58179.47
2856,22188,58199.85
2857,22208,58220.22
2858,22232,58240.60
2859,22248,58260.98
2860,22272,58281.36
2861,22296,58301.74
2862,22316,58322.11
2863,22304,58342.49
2864,22248,58362.87
2865,22160,58383.25
2866,22064,58403.63
2867,21980,58424.01
2868,21932,58444.38
2869,21912,58464.76
2870,21916,58485.14
2871,21936,58505.52
2872,21960,58525.90
2873,21996,58546.27
2874,22024,58566.65
2875,22056,58587.03
2876,22076,58607.41
2877,22088,58627.79
2878,22092,58648.16
2879,22092,58668.54
2880,22088,58688.92
2881,22084,58709.30
2882,22084,58729.68
2883,22088,58750.05
2884,22096,58770.43
2885,22112,58790.81
2886,22128,58811.19
2887,22152,58831.57
2888,22172,58851.95
2889,22192,58872.32
2890,22216,58892.70
2891,22236,58913.08
2892,22260,58933.46
2893,22276,58953.84
2894,22256,58974.21
2895,22192,58994.59
2896,22096,59014.97
2897,21992,59035.35
2898,21916,59055.73
2899,21872,59076.10
2900,21856,59096.48
2901,21868,59116.86
2902,21892,59137.24
2903,21920,59157.62
2904,21956,59177.99
2905,21992,59198.37
2906,22020,59218.75
2907,22044,59239.13
2908,22056,59259.51
2909,22060,59279.89
2910,22064,59300.26
2911,22064,59320.64
2912,22064,59341.02
2913,22072,59361.40
2914,22080,59381.78
2915,22092,59402.15
2916,22108,59422.53
2917,22128,59442.91
2918,22148,59463.29
2919,22172,59483.67
2920,22192,59504.04
2921,22216,59524.42
2922,22236,59544.80
2923,22260,59565.18
2924,22288,59585.56
2925,22292,59605.93
2926,22248,59626.31
2927,22168,59646.69
2928,22056,59667.07
2929,21948,59687.45
2930,21876,59707.83
2931,21840,59728.20
2932,21832,59748.58
2933,21844,59768.96
2934,21872,59789.34
2935,21900,59809.72
2936,21936,59830.09
2937,21972,59850.47
2938,22000,59870.85
2939,22020,59891.23
2940,22036,59911.61
2941,22040,59931.98
2942,22040,59952.36
2943,22048,59972.74
2944,22048,59993.12
2945,22056,60013.50
2946,22068,60033.87
2947,22084,60054.25
2948,22100,60074.63
2949,22124,60095.01
2950,22148,60115.39
2951,22172,60135.77
2952,22196,60156.14
2953,22220,60176.52
2954,22244,60196.90
2955,22268,60217.28
2956,22292,60237.66
2957,22308,60258.03
2958,22288,60278.41
2959,22220,60298.79
2960,22116,60319.17
2961,22000,60339.55
2962,21908,60359.92
2963,21852,60380.30
2964,21828,60400.68
2965,21832,60421.06
2966,21856,60441.44
2967,21892,60461.81
2968,21924,60482.19
2969,21964,60502.57
2970,21996,60522.95
2971,22016,60543.33
2972,22028,60563.71
2973,22040,60584.08
2974,22032,60604.46
2975,22032,60624.84
2976,22028,60645.22
2977,22032,60665.60
2978,22040,60685.97
2979,22056,60706.35
2980,22072,60726.73
2981,22088,60747.11
2982,22116,60767.49
2983,22140,60787.86
2984,22160,60808.24
2985,22188,60828.62
2986,22208,60849.00
2987,22232,60869.38
2988,22252,60889.75
2989,22268,60910.13
2990,22236,60930.51
2991,22160,60950.89
2992,22052,60971.27
2993,21948,60991.65
2994,21872,61012.02
2995,21832,61032.40
2996,21820,61052.78
2997,21832,61073.16
2998,21860,61093.54
2999,21896,61113.91
