Sample_Index,IR_Value,Timestamp_ms
0,20432,0.00
1,20132,20.79
2,19944,41.59
3,19932,62.38
4,20252,83.17
5,20836,103.96
6,21612,124.76
7,22260,145.55
8,22792,166.34
9,23196,187.14
10,23468,207.93
11,23608,228.72
12,23684,249.52
13,23724,270.31
14,23768,291.10
15,23816,311.89
16,23876,332.69
17,23940,353.48
18,23980,374.27
19,23960,395.07
20,23876,415.86
21,23796,436.65
22,23744,457.44
23,23708,478.24
24,23652,499.03
25,23608,519.82
26,23600,540.62
27,23596,561.41
28,23588,582.20
29,23584,602.99
30,23584,623.79
31,23592,644.58
32,23604,665.37
33,23612,686.17
34,23616,706.96
35,23616,727.75
36,23584,748.55
37,23544,769.34
38,23540,790.13
39,23552,810.92
40,23552,831.72
41,23540,852.51
42,23544,873.30
43,23536,894.10
44,23496,914.89
45,23448,935.68
46,23412,956.47
47,23384,977.27
48,23364,998.06
49,23352,1018.85
50,23348,1039.65
51,23352,1060.44
52,23352,1081.23
53,23352,1102.03
54,23356,1122.82
55,23364,1143.61
56,23368,1164.40
57,23360,1185.20
58,23356,1205.99
59,23340,1226.78
60,23336,1247.58
61,23332,1268.37
62,23328,1289.16
63,23332,1309.95
64,23332,1330.75
65,23344,1351.54
66,23356,1372.33
67,23368,1393.13
68,23384,1413.92
69,23396,1434.71
70,23408,1455.50
71,23428,1476.30
72,23448,1497.09
73,23468,1517.88
74,23476,1538.68
75,23468,1559.47
76,23444,1580.26
77,23408,1601.06
78,23372,1621.85
79,23348,1642.64
80,23332,1663.43
81,23324,1684.23
82,23328,1705.02
83,23344,1725.81
84,23352,1746.61
85,23368,1767.40
86,23388,1788.19
87,23400,1808.98
88,23408,1829.78
89,23412,1850.57
90,23412,1871.36
91,23416,1892.16
92,23432,1912.95
93,23456,1933.74
94,23472,1954.54
95,23484,1975.33
96,23496,1996.12
97,23520,2016.91
98,23540,2037.71
99,23568,2058.50
100,23596,2079.29
101,23620,2100.09
102,23636,2120.88
103,23652,2141.67
104,23656,2162.46
105,23644,2183.26
106,23616,2204.05
107,23576,2224.84
108,23544,2245.64
109,23524,2266.43
110,23512,2287.22
111,23508,2308.01
112,23508,2328.81
113,23520,2349.60
114,23524,2370.39
115,23536,2391.19
116,23548,2411.98
117,23556,2432.77
118,23564,2453.57
119,23568,2474.36
120,23572,2495.15
121,23572,2515.94
122,23568,2536.74
123,23564,2557.53
124,23568,2578.32
125,23580,2599.12
126,23592,2619.91
127,23604,2640.70
128,23616,2661.49
129,23632,2682.29
130,23648,2703.08
131,23656,2723.87
132,23668,2744.67
133,23676,2765.46
134,23660,2786.25
135,23632,2807.05
136,23592,2827.84
137,23552,2848.63
138,23524,2869.42
139,23508,2890.22
140,23492,2911.01
141,23488,2931.80
142,23484,2952.60
143,23484,2973.39
144,23484,2994.18
145,23496,3014.97
146,23504,3035.77
147,23508,3056.56
148,23516,3077.35
149,23516,3098.15
150,23520,3118.94
151,23520,3139.73
152,23524,3160.52
153,23532,3181.32
154,23536,3202.11
155,23544,3222.90
156,23556,3243.70
157,23568,3264.49
158,23580,3285.28
159,23588,3306.08
160,23600,3326.87
161,23604,3347.66
162,23600,3368.45
163,23576,3389.25
164,23540,3410.04
165,23496,3430.83
166,23464,3451.63
167,23440,3472.42
168,23424,3493.21
169,23412,3514.00
170,23404,3534.80
171,23400,3555.59
172,23404,3576.38
173,23412,3597.18
174,23420,3617.97
175,23420,3638.76
176,23424,3659.56
177,23420,3680.35
178,23420,3701.14
179,23420,3721.93
180,23424,3742.73
181,23432,3763.52
182,23440,3784.31
183,23452,3805.11
184,23460,3825.90
185,23472,3846.69
186,23492,3867.48
187,23504,3888.28
188,23524,3909.07
189,23540,3929.86
190,23552,3950.66
191,23544,3971.45
192,23516,3992.24
193,23480,4013.03
194,23448,4033.83
195,23420,4054.62
196,23404,4075.41
197,23392,4096.21
198,23392,4117.00
199,23392,4137.79
200,23400,4158.59
201,23408,4179.38
202,23420,4200.17
203,23420,4220.96
204,23424,4241.76
205,23428,4262.55
206,23432,4283.34
207,23428,4304.14
208,23432,4324.93
209,23432,4345.72
210,23432,4366.51
211,23436,4387.31
212,23448,4408.10
213,23456,4428.89
214,23464,4449.69
215,23480,4470.48
216,23496,4491.27
217,23508,4512.07
218,23528,4532.86
219,23532,4553.65
220,23512,4574.44
221,23476,4595.24
222,23440,4616.03
223,23400,4636.82
224,23368,4657.62
225,23352,4678.41
226,23344,4699.20
227,23340,4719.99
228,23344,4740.79
229,23348,4761.58
230,23360,4782.37
231,23364,4803.17
232,23368,4823.96
233,23372,4844.75
234,23372,4865.54
235,23372,4886.34
236,23372,4907.13
237,23372,4927.92
238,23376,4948.72
239,23384,4969.51
240,23396,4990.30
241,23408,5011.10
242,23416,5031.89
243,23428,5052.68
244,23440,5073.47
245,23448,5094.27
246,23456,5115.06
247,23468,5135.85
248,23464,5156.65
249,23440,5177.44
250,23400,5198.23
251,23356,5219.02
252,23324,5239.82
253,23300,5260.61
254,23288,5281.40
255,23280,5302.20
256,23280,5322.99
257,23284,5343.78
258,23288,5364.58
259,23296,5385.37
260,23304,5406.16
261,23312,5426.95
262,23316,5447.75
263,23320,5468.54
264,23320,5489.33
265,23328,5510.13
266,23332,5530.92
267,23340,5551.71
268,23352,5572.50
269,23364,5593.30
270,23376,5614.09
271,23392,5634.88
272,23404,5655.68
273,23412,5676.47
274,23428,5697.26
275,23440,5718.06
276,23448,5738.85
277,23436,5759.64
278,23408,5780.43
279,23364,5801.23
280,23308,5822.02
281,23264,5842.81
282,23228,5863.61
283,23204,5884.40
284,23200,5905.19
285,23192,5925.98
286,23196,5946.78
287,23200,5967.57
288,23208,5988.36
289,23216,6009.16
290,23224,6029.95
291,23228,6050.74
292,23228,6071.53
293,23228,6092.33
294,23232,6113.12
295,23236,6133.91
296,23240,6154.71
297,23252,6175.50
298,23264,6196.29
299,23284,6217.09
300,23296,6237.88
301,23316,6258.67
302,23336,6279.46
303,23352,6300.26
304,23368,6321.05
305,23380,6341.84
306,23400,6362.64
307,23412,6383.43
308,23428,6404.22
309,23428,6425.01
310,23408,6445.81
311,23372,6466.60
312,23320,6487.39
313,23276,6508.19
314,23240,6528.98
315,23216,6549.77
316,23204,6570.57
317,23200,6591.36
318,23196,6612.15
319,23196,6632.94
320,23204,6653.74
321,23208,6674.53
322,23216,6695.32
323,23220,6716.12
324,23228,6736.91
325,23232,6757.70
326,23236,6778.49
327,23236,6799.29
328,23244,6820.08
329,23252,6840.87
330,23260,6861.67
331,23276,6882.46
332,23292,6903.25
333,23308,6924.04
334,23328,6944.84
335,23344,6965.63
336,23360,6986.42
337,23372,7007.22
338,23392,7028.01
339,23412,7048.80
340,23428,7069.60
341,23444,7090.39
342,23456,7111.18
343,23448,7131.97
344,23416,7152.77
345,23372,7173.56
346,23320,7194.35
347,23280,7215.15
348,23256,7235.94
349,23236,7256.73
350,23236,7277.52
351,23232,7298.32
352,23236,7319.11
353,23244,7339.90
354,23252,7360.70
355,23256,7381.49
356,23260,7402.28
357,23264,7423.08
358,23260,7443.87
359,23256,7464.66
360,23252,7485.45
361,23252,7506.25
362,23256,7527.04
363,23256,7547.83
364,23264,7568.63
365,23272,7589.42
366,23280,7610.21
367,23288,7631.00
368,23304,7651.80
369,23320,7672.59
370,23336,7693.38
371,23352,7714.18
372,23368,7734.97
373,23388,7755.76
374,23400,7776.55
375,23416,7797.35
376,23428,7818.14
377,23436,7838.93
378,23420,7859.73
379,23388,7880.52
380,23340,7901.31
381,23288,7922.11
382,23252,7942.90
383,23224,7963.69
384,23208,7984.48
385,23208,8005.28
386,23216,8026.07
387,23224,8046.86
388,23232,8067.66
389,23240,8088.45
390,23244,8109.24
391,23252,8130.03
392,23252,8150.83
393,23252,8171.62
394,23244,8192.41
395,23248,8213.21
396,23252,8234.00
397,23256,8254.79
398,23264,8275.59
399,23272,8296.38
400,23284,8317.17
401,23300,8337.96
402,23308,8358.76
403,23324,8379.55
404,23340,8400.34
405,23356,8421.14
406,23372,8441.93
407,23384,8462.72
408,23396,8483.51
409,23412,8504.31
410,23416,8525.10
411,23408,8545.89
412,23384,8566.69
413,23336,8587.48
414,23296,8608.27
415,23260,8629.06
416,23236,8649.86
417,23224,8670.65
418,23224,8691.44
419,23232,8712.24
420,23240,8733.03
421,23256,8753.82
422,23272,8774.62
423,23280,8795.41
424,23292,8816.20
425,23292,8836.99
426,23288,8857.79
427,23284,8878.58
428,23280,8899.37
429,23280,8920.17
430,23280,8940.96
431,23284,8961.75
432,23288,8982.54
433,23300,9003.34
434,23308,9024.13
435,23324,9044.92
436,23336,9065.72
437,23344,9086.51
438,23356,9107.30
439,23368,9128.10
440,23380,9148.89
441,23384,9169.68
442,23364,9190.47
443,23328,9211.27
444,23284,9232.06
445,23240,9252.85
446,23204,9273.65
447,23180,9294.44
448,23168,9315.23
449,23168,9336.02
450,23172,9356.82
451,23184,9377.61
452,23196,9398.40
453,23212,9419.20
454,23224,9439.99
455,23220,9460.78
456,23220,9481.57
457,23220,9502.37
458,23212,9523.16
459,23208,9543.95
460,23212,9564.75
461,23216,9585.54
462,23224,9606.33
463,23236,9627.13
464,23248,9647.92
465,23264,9668.71
466,23272,9689.50
467,23284,9710.30
468,23296,9731.09
469,23312,9751.88
470,23316,9772.68
471,23308,9793.47
472,23276,9814.26
473,23228,9835.05
474,23176,9855.85
475,23124,9876.64
476,23092,9897.43
477,23072,9918.23
478,23064,9939.02
479,23064,9959.81
480,23064,9980.61
481,23076,10001.40
482,23088,10022.19
483,23100,10042.98
484,23104,10063.78
485,23104,10084.57
486,23100,10105.36
487,23092,10126.16
488,23088,10146.95
489,23088,10167.74
490,23088,10188.53
491,23100,10209.33
492,23108,10230.12
493,23120,10250.91
494,23132,10271.71
495,23144,10292.50
496,23160,10313.29
497,23176,10334.08
498,23188,10354.88
499,23192,10375.67
500,23172,10396.46
501,23132,10417.26
502,23080,10438.05
503,23024,10458.84
504,22980,10479.64
505,22944,10500.43
506,22928,10521.22
507,22916,10542.01
508,22916,10562.81
509,22924,10583.60
510,22932,10604.39
511,22944,10625.19
512,22952,10645.98
513,22956,10666.77
514,22960,10687.56
515,22956,10708.36
516,22964,10729.15
517,22964,10749.94
518,22968,10770.74
519,22968,10791.53
520,22976,10812.32
521,22984,10833.12
522,22996,10853.91
523,23008,10874.70
524,23016,10895.49
525,23032,10916.29
526,23048,10937.08
527,23052,10957.87
528,23048,10978.67
529,23016,10999.46
530,22960,11020.25
531,22900,11041.04
532,22848,11061.84
533,22804,11082.63
534,22784,11103.42
535,22780,11124.22
536,22780,11145.01
537,22784,11165.80
538,22796,11186.59
539,22808,11207.39
540,22816,11228.18
541,22824,11248.97
542,22828,11269.77
543,22832,11290.56
544,22832,11311.35
545,22832,11332.15
546,22840,11352.94
547,22848,11373.73
548,22860,11394.52
549,22864,11415.32
550,22872,11436.11
551,22884,11456.90
552,22896,11477.70
553,22912,11498.49
554,22920,11519.28
555,22936,11540.07
556,22944,11560.87
557,22924,11581.66
558,22884,11602.45
559,22828,11623.25
560,22772,11644.04
561,22728,11664.83
562,22696,11685.63
563,22688,11706.42
564,22684,11727.21
565,22688,11748.00
566,22696,11768.80
567,22704,11789.59
568,22720,11810.38
569,22732,11831.18
570,22736,11851.97
571,22732,11872.76
572,22732,11893.55
573,22732,11914.35
574,22736,11935.14
575,22740,11955.93
576,22740,11976.73
577,22744,11997.52
578,22756,12018.31
579,22772,12039.10
580,22784,12059.90
581,22796,12080.69
582,22812,12101.48
583,22832,12122.28
584,22848,12143.07
585,22832,12163.86
586,22796,12184.66
587,22740,12205.45
588,22688,12226.24
589,22644,12247.03
590,22616,12267.83
591,22604,12288.62
592,22608,12309.41
593,22620,12330.21
594,22632,12351.00
595,22652,12371.79
596,22672,12392.58
597,22688,12413.38
598,22704,12434.17
599,22708,12454.96
600,22708,12475.76
601,22708,12496.55
602,22720,12517.34
603,22724,12538.14
604,22740,12558.93
605,22756,12579.72
606,22772,12600.51
607,22788,12621.31
608,22808,12642.10
609,22828,12662.89
610,22844,12683.69
611,22864,12704.48
612,22872,12725.27
613,22860,12746.06
614,22816,12766.86
615,22756,12787.65
616,22692,12808.44
617,22644,12829.24
618,22616,12850.03
619,22600,12870.82
620,22600,12891.61
621,22608,12912.41
622,22620,12933.20
623,22636,12953.99
624,22652,12974.79
625,22660,12995.58
626,22660,13016.37
627,22664,13037.17
628,22660,13057.96
629,22660,13078.75
630,22660,13099.54
631,22664,13120.34
632,22672,13141.13
633,22684,13161.92
634,22696,13182.72
635,22708,13203.51
636,22724,13224.30
637,22740,13245.09
638,22756,13265.89
639,22772,13286.68
640,22780,13307.47
641,22760,13328.27
642,22716,13349.06
643,22652,13369.85
644,22592,13390.65
645,22536,13411.44
646,22508,13432.23
647,22496,13453.02
648,22492,13473.82
649,22496,13494.61
650,22508,13515.40
651,22520,13536.20
652,22536,13556.99
653,22544,13577.78
654,22548,13598.57
655,22548,13619.37
656,22548,13640.16
657,22548,13660.95
658,22552,13681.75
659,22560,13702.54
660,22572,13723.33
661,22584,13744.12
662,22600,13764.92
663,22624,13785.71
664,22640,13806.50
665,22664,13827.30
666,22688,13848.09
667,22716,13868.88
668,22732,13889.68
669,22736,13910.47
670,22716,13931.26
671,22664,13952.05
672,22600,13972.85
673,22540,13993.64
674,22492,14014.43
675,22468,14035.23
676,22460,14056.02
677,22468,14076.81
678,22472,14097.60
679,22484,14118.40
680,22496,14139.19
681,22512,14159.98
682,22528,14180.78
683,22536,14201.57
684,22536,14222.36
685,22528,14243.16
686,22528,14263.95
687,22524,14284.74
688,22520,14305.53
689,22516,14326.33
690,22520,14347.12
691,22524,14367.91
692,22532,14388.71
693,22544,14409.50
694,22548,14430.29
695,22556,14451.08
696,22564,14471.88
697,22576,14492.67
698,22584,14513.46
699,22588,14534.26
700,22596,14555.05
701,22584,14575.84
702,22536,14596.63
703,22464,14617.43
704,22392,14638.22
705,22324,14659.01
706,22280,14679.81
707,22260,14700.60
708,22252,14721.39
709,22252,14742.19
710,22252,14762.98
711,22256,14783.77
712,22256,14804.56
713,22264,14825.36
714,22268,14846.15
715,22268,14866.94
716,22260,14887.74
717,22256,14908.53
718,22252,14929.32
719,22252,14950.11
720,22248,14970.91
721,22260,14991.70
722,22272,15012.49
723,22288,15033.29
724,22304,15054.08
725,22316,15074.87
726,22332,15095.67
727,22344,15116.46
728,22360,15137.25
729,22376,15158.04
730,22388,15178.84
731,22408,15199.63
732,22428,15220.42
733,22452,15241.22
734,22476,15262.01
735,22484,15282.80
736,22464,15303.59
737,22416,15324.39
738,22348,15345.18
739,22280,15365.97
740,22232,15386.77
741,22216,15407.56
742,22216,15428.35
743,22232,15449.15
744,22252,15469.94
745,22276,15490.73
746,22296,15511.52
747,22320,15532.32
748,22336,15553.11
749,22348,15573.90
750,22360,15594.70
751,22372,15615.49
752,22376,15636.28
753,22384,15657.07
754,22404,15677.87
755,22424,15698.66
756,22444,15719.45
757,22472,15740.25
758,22500,15761.04
759,22528,15781.83
760,22552,15802.62
761,22572,15823.42
762,22604,15844.21
763,22624,15865.00
764,22648,15885.80
765,22664,15906.59
766,22684,15927.38
767,22704,15948.18
768,22724,15968.97
769,22740,15989.76
770,22764,16010.55
771,22788,16031.35
772,22784,16052.14
773,22756,16072.93
774,22700,16093.73
775,22640,16114.52
776,22580,16135.31
777,22540,16156.10
778,22528,16176.90
779,22532,16197.69
780,22544,16218.48
781,22568,16239.28
782,22592,16260.07
783,22620,16280.86
784,22648,16301.66
785,22664,16322.45
786,22672,16343.24
787,22672,16364.03
788,22672,16384.83
789,22672,16405.62
790,22680,16426.41
791,22688,16447.21
792,22700,16468.00
793,22716,16488.79
794,22732,16509.58
795,22756,16530.38
796,22780,16551.17
797,22796,16571.96
798,22824,16592.76
799,22848,16613.55
800,22872,16634.34
801,22892,16655.13
802,22916,16675.93
803,22932,16696.72
804,22956,16717.51
805,22968,16738.31
806,22956,16759.10
807,22920,16779.89
808,22868,16800.69
809,22812,16821.48
810,22764,16842.27
811,22732,16863.06
812,22724,16883.86
813,22724,16904.65
814,22732,16925.44
815,22756,16946.24
816,22788,16967.03
817,22816,16987.82
818,22844,17008.61
819,22860,17029.41
820,22864,17050.20
821,22868,17070.99
822,22872,17091.79
823,22876,17112.58
824,22880,17133.37
825,22884,17154.17
826,22900,17174.96
827,22916,17195.75
828,22936,17216.54
829,22952,17237.34
830,22968,17258.13
831,22984,17278.92
832,23008,17299.72
833,23024,17320.51
834,23044,17341.30
835,23060,17362.09
836,23072,17382.89
837,23060,17403.68
838,23024,17424.47
839,22968,17445.27
840,22904,17466.06
841,22844,17486.85
842,22804,17507.64
843,22780,17528.44
844,22776,17549.23
845,22780,17570.02
846,22796,17590.82
847,22816,17611.61
848,22832,17632.40
849,22848,17653.20
850,22864,17673.99
851,22868,17694.78
852,22868,17715.57
853,22868,17736.37
854,22864,17757.16
855,22860,17777.95
856,22868,17798.75
857,22876,17819.54
858,22888,17840.33
859,22908,17861.12
860,22928,17881.92
861,22944,17902.71
862,22960,17923.50
863,22980,17944.30
864,22992,17965.09
865,23012,17985.88
866,23024,18006.68
867,23036,18027.47
868,23020,18048.26
869,22976,18069.05
870,22912,18089.85
871,22844,18110.64
872,22788,18131.43
873,22752,18152.23
874,22732,18173.02
875,22724,18193.81
876,22728,18214.60
877,22744,18235.40
878,22752,18256.19
879,22768,18276.98
880,22776,18297.78
881,22776,18318.57
882,22760,18339.36
883,22740,18360.15
884,22720,18380.95
885,22696,18401.74
886,22676,18422.53
887,22668,18443.33
888,22660,18464.12
889,22660,18484.91
890,22668,18505.71
891,22676,18526.50
892,22684,18547.29
893,22692,18568.08
894,22704,18588.88
895,22712,18609.67
896,22720,18630.46
897,22724,18651.26
898,22696,18672.05
899,22640,18692.84
900,22564,18713.63
901,22488,18734.43
902,22424,18755.22
903,22384,18776.01
904,22368,18796.81
905,22368,18817.60
906,22376,18838.39
907,22384,18859.19
908,22400,18879.98
909,22416,18900.77
910,22432,18921.56
911,22440,18942.36
912,22436,18963.15
913,22424,18983.94
914,22412,19004.74
915,22404,19025.53
916,22396,19046.32
917,22396,19067.11
918,22400,19087.91
919,22404,19108.70
920,22416,19129.49
921,22424,19150.29
922,22440,19171.08
923,22448,19191.87
924,22464,19212.66
925,22476,19233.46
926,22484,19254.25
927,22468,19275.04
928,22412,19295.84
929,22344,19316.63
930,22272,19337.42
931,22220,19358.22
932,22192,19379.01
933,22184,19399.80
934,22192,19420.59
935,22212,19441.39
936,22236,19462.18
937,22264,19482.97
938,22304,19503.77
939,22328,19524.56
940,22356,19545.35
941,22376,19566.14
942,22400,19586.94
943,22408,19607.73
944,22412,19628.52
945,22420,19649.32
946,22432,19670.11
947,22444,19690.90
948,22464,19711.70
949,22488,19732.49
950,22508,19753.28
951,22536,19774.07
952,22556,19794.87
953,22576,19815.66
954,22600,19836.45
955,22624,19857.25
956,22636,19878.04
957,22628,19898.83
958,22576,19919.62
959,22516,19940.42
960,22452,19961.21
961,22400,19982.00
962,22368,20002.80
963,22360,20023.59
964,22360,20044.38
965,22368,20065.17
966,22388,20085.97
967,22412,20106.76
968,22440,20127.55
969,22468,20148.35
970,22480,20169.14
971,22484,20189.93
972,22488,20210.73
973,22492,20231.52
974,22488,20252.31
975,22500,20273.10
976,22512,20293.90
977,22528,20314.69
978,22548,20335.48
979,22572,20356.28
980,22596,20377.07
981,22620,20397.86
982,22644,20418.65
983,22668,20439.45
984,22692,20460.24
985,22712,20481.03
986,22712,20501.83
987,22684,20522.62
988,22628,20543.41
989,22572,20564.21
990,22524,20585.00
991,22488,20605.79
992,22476,20626.58
993,22476,20647.38
994,22480,20668.17
995,22500,20688.96
996,22524,20709.76
997,22552,20730.55
998,22572,20751.34
999,22588,20772.13
1000,22600,20792.93
1001,22604,20813.72
1002,22608,20834.51
1003,22608,20855.31
1004,22616,20876.10
1005,22628,20896.89
1006,22640,20917.68
1007,22652,20938.48
1008,22664,20959.27
1009,22676,20980.06
1010,22696,21000.86
1011,22708,21021.65
1012,22732,21042.44
1013,22748,21063.24
1014,22748,21084.03
1015,22720,21104.82
1016,22668,21125.61
1017,22604,21146.41
1018,22540,21167.20
1019,22492,21187.99
1020,22460,21208.79
1021,22448,21229.58
1022,22452,21250.37
1023,22468,21271.16
1024,22488,21291.96
1025,22512,21312.75
1026,22540,21333.54
1027,22556,21354.34
1028,22560,21375.13
1029,22556,21395.92
1030,22552,21416.72
1031,22544,21437.51
1032,22540,21458.30
1033,22536,21479.09
1034,22544,21499.89
1035,22556,21520.68
1036,22572,21541.47
1037,22592,21562.27
1038,22612,21583.06
1039,22632,21603.85
1040,22652,21624.64
1041,22668,21645.44
1042,22660,21666.23
1043,22620,21687.02
1044,22564,21707.82
1045,22500,21728.61
1046,22444,21749.40
1047,22412,21770.19
1048,22396,21790.99
1049,22396,21811.78
1050,22408,21832.57
1051,22432,21853.37
1052,22460,21874.16
1053,22484,21894.95
1054,22508,21915.75
1055,22524,21936.54
1056,22524,21957.33
1057,22520,21978.12
1058,22512,21998.92
1059,22508,22019.71
1060,22508,22040.50
1061,22516,22061.30
1062,22528,22082.09
1063,22544,22102.88
1064,22564,22123.67
1065,22580,22144.47
1066,22604,22165.26
1067,22628,22186.05
1068,22648,22206.85
1069,22648,22227.64
1070,22612,22248.43
1071,22544,22269.23
1072,22468,22290.02
1073,22400,22310.81
1074,22348,22331.60
1075,22328,22352.40
1076,22320,22373.19
1077,22336,22393.98
1078,22344,22414.78
1079,22364,22435.57
1080,22388,22456.36
1081,22412,22477.15
1082,22420,22497.95
1083,22428,22518.74
1084,22432,22539.53
1085,22428,22560.33
1086,22424,22581.12
1087,22432,22601.91
1088,22440,22622.70
1089,22456,22643.50
1090,22476,22664.29
1091,22492,22685.08
1092,22512,22705.88
1093,22536,22726.67
1094,22564,22747.46
1095,22588,22768.26
1096,22600,22789.05
1097,22584,22809.84
1098,22532,22830.63
1099,22464,22851.43
1100,22384,22872.22
1101,22320,22893.01
1102,22288,22913.81
1103,22272,22934.60
1104,22272,22955.39
1105,22288,22976.18
1106,22296,22996.98
1107,22312,23017.77
1108,22336,23038.56
1109,22344,23059.36
1110,22352,23080.15
1111,22360,23100.94
1112,22360,23121.74
1113,22356,23142.53
1114,22360,23163.32
1115,22364,23184.11
1116,22372,23204.91
1117,22380,23225.70
1118,22396,23246.49
1119,22416,23267.29
1120,22436,23288.08
1121,22456,23308.87
1122,22476,23329.66
1123,22496,23350.46
1124,22512,23371.25
1125,22504,23392.04
1126,22452,23412.84
1127,22380,23433.63
1128,22304,23454.42
1129,22240,23475.21
1130,22204,23496.01
1131,22184,23516.80
1132,22180,23537.59
1133,22188,23558.39
1134,22208,23579.18
1135,22228,23599.97
1136,22248,23620.77
1137,22264,23641.56
1138,22276,23662.35
1139,22280,23683.14
1140,22280,23703.94
1141,22276,23724.73
1142,22280,23745.52
1143,22288,23766.32
1144,22300,23787.11
1145,22320,23807.90
1146,22336,23828.69
1147,22352,23849.49
1148,22368,23870.28
1149,22392,23891.07
1150,22408,23911.87
1151,22428,23932.66
1152,22440,23953.45
1153,22436,23974.25
1154,22396,23995.04
1155,22336,24015.83
1156,22256,24036.62
1157,22188,24057.42
1158,22140,24078.21
1159,22116,24099.00
1160,22116,24119.80
1161,22120,24140.59
1162,22132,24161.38
1163,22148,24182.17
1164,22164,24202.97
1165,22184,24223.76
1166,22196,24244.55
1167,22196,24265.35
1168,22200,24286.14
1169,22196,24306.93
1170,22192,24327.72
1171,22188,24348.52
1172,22188,24369.31
1173,22196,24390.10
1174,22200,24410.90
1175,22204,24431.69
1176,22204,24452.48
1177,22204,24473.28
1178,22208,24494.07
1179,22212,24514.86
1180,22212,24535.65
1181,22212,24556.45
1182,22192,24577.24
1183,22128,24598.03
1184,22044,24618.83
1185,21948,24639.62
1186,21868,24660.41
1187,21808,24681.20
1188,21776,24702.00
1189,21760,24722.79
1190,21752,24743.58
1191,21748,24764.38
1192,21744,24785.17
1193,21748,24805.96
1194,21752,24826.76
1195,21756,24847.55
1196,21752,24868.34
1197,21748,24889.13
1198,21740,24909.93
1199,21736,24930.72
1200,21732,24951.51
1201,21744,24972.31
1202,21760,24993.10
1203,21788,25013.89
1204,21816,25034.68
1205,21836,25055.48
1206,21860,25076.27
1207,21880,25097.06
1208,21896,25117.86
1209,21916,25138.65
1210,21928,25159.44
1211,21944,25180.24
1212,21948,25201.03
1213,21924,25221.82
1214,21880,25242.61
1215,21820,25263.41
1216,21764,25284.20
1217,21728,25304.99
1218,21712,25325.79
1219,21716,25346.58
1220,21732,25367.37
1221,21748,25388.16
1222,21768,25408.96
1223,21788,25429.75
1224,21808,25450.54
1225,21832,25471.34
1226,21844,25492.13
1227,21852,25512.92
1228,21852,25533.71
1229,21860,25554.51
1230,21864,25575.30
1231,21880,25596.09
1232,21892,25616.89
1233,21912,25637.68
1234,21940,25658.47
1235,21960,25679.27
1236,21980,25700.06
1237,22008,25720.85
1238,22036,25741.64
1239,22060,25762.44
1240,22080,25783.23
1241,22104,25804.02
1242,22124,25824.82
1243,22148,25845.61
1244,22172,25866.40
1245,22192,25887.19
1246,22192,25907.99
1247,22160,25928.78
1248,22088,25949.57
1249,22000,25970.37
1250,21924,25991.16
1251,21876,26011.95
1252,21860,26032.75
1253,21860,26053.54
1254,21872,26074.33
1255,21892,26095.12
1256,21908,26115.92
1257,21932,26136.71
1258,21952,26157.50
1259,21964,26178.30
1260,21980,26199.09
1261,21984,26219.88
1262,21992,26240.67
1263,21996,26261.47
1264,22004,26282.26
1265,22012,26303.05
1266,22024,26323.85
1267,22044,26344.64
1268,22064,26365.43
1269,22080,26386.22
1270,22100,26407.02
1271,22128,26427.81
1272,22152,26448.60
1273,22168,26469.40
1274,22188,26490.19
1275,22204,26510.98
1276,22220,26531.78
1277,22240,26552.57
1278,22252,26573.36
1279,22244,26594.15
1280,22204,26614.95
1281,22136,26635.74
1282,22056,26656.53
1283,21988,26677.33
1284,21948,26698.12
1285,21936,26718.91
1286,21936,26739.70
1287,21952,26760.50
1288,21976,26781.29
1289,22000,26802.08
1290,22028,26822.88
1291,22048,26843.67
1292,22064,26864.46
1293,22080,26885.26
1294,22080,26906.05
1295,22084,26926.84
1296,22088,26947.63
1297,22096,26968.43
1298,22104,26989.22
1299,22116,27010.01
1300,22132,27030.81
1301,22152,27051.60
1302,22172,27072.39
1303,22188,27093.18
1304,22212,27113.98
1305,22228,27134.77
1306,22252,27155.56
1307,22272,27176.36
1308,22292,27197.15
1309,22308,27217.94
1310,22328,27238.73
1311,22340,27259.53
1312,22324,27280.32
1313,22268,27301.11
1314,22188,27321.91
1315,22108,27342.70
1316,22044,27363.49
1317,22016,27384.29
1318,22012,27405.08
1319,22016,27425.87
1320,22036,27446.66
1321,22064,27467.46
1322,22092,27488.25
1323,22116,27509.04
1324,22140,27529.84
1325,22152,27550.63
1326,22156,27571.42
1327,22160,27592.21
1328,22160,27613.01
1329,22160,27633.80
1330,22168,27654.59
1331,22176,27675.39
1332,22192,27696.18
1333,22216,27716.97
1334,22240,27737.77
1335,22260,27758.56
1336,22280,27779.35
1337,22300,27800.14
1338,22324,27820.94
1339,22344,27841.73
1340,22372,27862.52
1341,22388,27883.32
1342,22384,27904.11
1343,22344,27924.90
1344,22264,27945.69
1345,22180,27966.49
1346,22112,27987.28
1347,22064,28008.07
1348,22040,28028.87
1349,22040,28049.66
1350,22052,28070.45
1351,22072,28091.24
1352,22096,28112.04
1353,22128,28132.83
1354,22152,28153.62
1355,22172,28174.42
1356,22176,28195.21
1357,22180,28216.00
1358,22176,28236.80
1359,22176,28257.59
1360,22176,28278.38
1361,22188,28299.17
1362,22208,28319.97
1363,22228,28340.76
1364,22248,28361.55
1365,22272,28382.35
1366,22292,28403.14
1367,22312,28423.93
1368,22336,28444.72
1369,22360,28465.52
1370,22384,28486.31
1371,22388,28507.10
1372,22352,28527.90
1373,22284,28548.69
1374,22196,28569.48
1375,22124,28590.28
1376,22072,28611.07
1377,22040,28631.86
1378,22032,28652.65
1379,22044,28673.45
1380,22064,28694.24
1381,22088,28715.03
1382,22112,28735.83
1383,22140,28756.62
1384,22160,28777.41
1385,22172,28798.20
1386,22180,28819.00
1387,22180,28839.79
1388,22176,28860.58
1389,22180,28881.38
1390,22184,28902.17
1391,22188,28922.96
1392,22200,28943.75
1393,22212,28964.55
1394,22228,28985.34
1395,22252,29006.13
1396,22276,29026.93
1397,22296,29047.72
1398,22316,29068.51
1399,22336,29089.31
1400,22332,29110.10
1401,22284,29130.89
1402,22200,29151.68
1403,22112,29172.48
1404,22036,29193.27
1405,21984,29214.06
1406,21960,29234.86
1407,21956,29255.65
1408,21964,29276.44
1409,21972,29297.23
1410,21992,29318.03
1411,22012,29338.82
1412,22032,29359.61
1413,22048,29380.41
1414,22064,29401.20
1415,22072,29421.99
1416,22072,29442.79
1417,22076,29463.58
1418,22080,29484.37
1419,22092,29505.16
1420,22104,29525.96
1421,22124,29546.75
1422,22144,29567.54
1423,22168,29588.34
1424,22188,29609.13
1425,22212,29629.92
1426,22236,29650.71
1427,22260,29671.51
1428,22272,29692.30
1429,22236,29713.09
1430,22168,29733.89
1431,22080,29754.68
1432,21992,29775.47
1433,21932,29796.26
1434,21896,29817.06
1435,21888,29837.85
1436,21888,29858.64
1437,21900,29879.44
1438,21908,29900.23
1439,21932,29921.02
1440,21956,29941.82
1441,21976,29962.61
1442,21996,29983.40
1443,22004,30004.19
1444,22016,30024.99
1445,22024,30045.78
1446,22036,30066.57
1447,22048,30087.37
1448,22064,30108.16
1449,22080,30128.95
1450,22100,30149.74
1451,22128,30170.54
1452,22156,30191.33
1453,22188,30212.12
1454,22216,30232.92
1455,22248,30253.71
1456,22276,30274.50
1457,22292,30295.30
1458,22276,30316.09
1459,22212,30336.88
1460,22124,30357.67
1461,22036,30378.47
1462,21968,30399.26
1463,21932,30420.05
1464,21908,30440.85
1465,21912,30461.64
1466,21920,30482.43
1467,21932,30503.22
1468,21952,30524.02
1469,21976,30544.81
1470,21992,30565.60
1471,22004,30586.40
1472,22016,30607.19
1473,22024,30627.98
1474,22024,30648.77
1475,22028,30669.57
1476,22040,30690.36
1477,22052,30711.15
1478,22068,30731.95
1479,22084,30752.74
1480,22112,30773.53
1481,22140,30794.33
1482,22168,30815.12
1483,22196,30835.91
1484,22220,30856.70
1485,22248,30877.50
1486,22272,30898.29
1487,22292,30919.08
1488,22316,30939.88
1489,22304,30960.67
1490,22244,30981.46
1491,22156,31002.25
1492,22056,31023.05
1493,21980,31043.84
1494,21928,31064.63
1495,21908,31085.43
1496,21908,31106.22
1497,21920,31127.01
1498,21936,31147.81
1499,21956,31168.60
1500,21972,31189.39
1501,21992,31210.18
1502,22008,31230.98
1503,22016,31251.77
1504,22012,31272.56
1505,22012,31293.36
1506,22012,31314.15
1507,22020,31334.94
1508,22028,31355.73
1509,22040,31376.53
1510,22056,31397.32
1511,22080,31418.11
1512,22100,31438.91
1513,22124,31459.70
1514,22144,31480.49
1515,22172,31501.28
1516,22196,31522.08
1517,22220,31542.87
1518,22240,31563.66
1519,22264,31584.46
1520,22288,31605.25
1521,22304,31626.04
1522,22288,31646.84
1523,22224,31667.63
1524,22128,31688.42
1525,22036,31709.21
1526,21952,31730.01
1527,21908,31750.80
1528,21892,31771.59
1529,21896,31792.39
1530,21908,31813.18
1531,21928,31833.97
1532,21952,31854.76
1533,21980,31875.56
1534,21996,31896.35
1535,22012,31917.14
1536,22020,31937.94
1537,22024,31958.73
1538,22028,31979.52
1539,22036,32000.32
1540,22044,32021.11
1541,22056,32041.90
1542,22072,32062.69
1543,22092,32083.49
1544,22112,32104.28
1545,22132,32125.07
1546,22156,32145.87
1547,22180,32166.66
1548,22208,32187.45
1549,22232,32208.24
1550,22252,32229.04
1551,22284,32249.83
1552,22300,32270.62
1553,22328,32291.42
1554,22336,32312.21
1555,22308,32333.00
1556,22244,32353.79
1557,22148,32374.59
1558,22056,32395.38
1559,21988,32416.17
1560,21952,32436.97
1561,21940,32457.76
1562,21952,32478.55
1563,21972,32499.35
1564,21996,32520.14
1565,22028,32540.93
1566,22056,32561.72
1567,22084,32582.52
1568,22100,32603.31
1569,22104,32624.10
1570,22104,32644.90
1571,22100,32665.69
1572,22104,32686.48
1573,22108,32707.27
1574,22120,32728.07
1575,22140,32748.86
1576,22160,32769.65
1577,22184,32790.45
1578,22204,32811.24
1579,22228,32832.03
1580,22252,32852.83
1581,22272,32873.62
1582,22300,32894.41
1583,22316,32915.20
1584,22340,32936.00
1585,22348,32956.79
1586,22328,32977.58
1587,22268,32998.38
1588,22180,33019.17
1589,22092,33039.96
1590,22016,33060.75
1591,21972,33081.55
1592,21948,33102.34
1593,21952,33123.13
1594,21972,33143.93
1595,22000,33164.72
1596,22032,33185.51
1597,22064,33206.30
1598,22092,33227.10
1599,22108,33247.89
1600,22120,33268.68
1601,22120,33289.48
1602,22116,33310.27
1603,22116,33331.06
1604,22120,33351.86
1605,22132,33372.65
1606,22148,33393.44
1607,22172,33414.23
1608,22196,33435.03
1609,22220,33455.82
1610,22244,33476.61
1611,22264,33497.41
1612,22284,33518.20
1613,22308,33538.99
1614,22328,33559.78
1615,22352,33580.58
1616,22340,33601.37
1617,22284,33622.16
1618,22192,33642.96
1619,22100,33663.75
1620,22016,33684.54
1621,21968,33705.34
1622,21944,33726.13
1623,21944,33746.92
1624,21956,33767.71
1625,21976,33788.51
1626,21996,33809.30
1627,22028,33830.09
1628,22056,33850.89
1629,22072,33871.68
1630,22084,33892.47
1631,22088,33913.26
1632,22088,33934.06
1633,22088,33954.85
1634,22092,33975.64
1635,22100,33996.44
1636,22116,34017.23
1637,22132,34038.02
1638,22156,34058.81
1639,22184,34079.61
1640,22208,34100.40
1641,22232,34121.19
1642,22252,34141.99
1643,22280,34162.78
1644,22300,34183.57
1645,22316,34204.37
1646,22288,34225.16
1647,22216,34245.95
1648,22116,34266.74
1649,22016,34287.54
1650,21948,34308.33
1651,21904,34329.12
1652,21888,34349.92
1653,21892,34370.71
1654,21904,34391.50
1655,21920,34412.29
1656,21944,34433.09
1657,21968,34453.88
1658,21992,34474.67
1659,22008,34495.47
1660,22016,34516.26
1661,22020,34537.05
1662,22024,34557.85
1663,22028,34578.64
1664,22028,34599.43
1665,22040,34620.22
1666,22056,34641.02
1667,22076,34661.81
1668,22096,34682.60
1669,22120,34703.40
1670,22144,34724.19
1671,22168,34744.98
1672,22188,34765.77
1673,22212,34786.57
1674,22232,34807.36
1675,22240,34828.15
1676,22204,34848.95
1677,22124,34869.74
1678,22020,34890.53
1679,21924,34911.32
1680,21856,34932.12
1681,21816,34952.91
1682,21800,34973.70
1683,21804,34994.50
1684,21820,35015.29
1685,21836,35036.08
1686,21860,35056.88
1687,21884,35077.67
1688,21904,35098.46
1689,21920,35119.25
1690,21928,35140.05
1691,21936,35160.84
1692,21940,35181.63
1693,21944,35202.43
1694,21952,35223.22
1695,21964,35244.01
1696,21984,35264.80
1697,22004,35285.60
1698,22028,35306.39
1699,22052,35327.18
1700,22076,35347.98
1701,22100,35368.77
1702,22128,35389.56
1703,22148,35410.36
1704,22164,35431.15
1705,22180,35451.94
1706,22148,35472.73
1707,22076,35493.53
1708,21976,35514.32
1709,21880,35535.11
1710,21808,35555.91
1711,21764,35576.70
1712,21748,35597.49
1713,21760,35618.28
1714,21772,35639.08
1715,21792,35659.87
1716,21824,35680.66
1717,21848,35701.46
1718,21872,35722.25
1719,21892,35743.04
1720,21908,35763.84
1721,21920,35784.63
1722,21924,35805.42
1723,21928,35826.21
1724,21940,35847.01
1725,21956,35867.80
1726,21972,35888.59
1727,21996,35909.39
1728,22020,35930.18
1729,22044,35950.97
1730,22072,35971.76
1731,22100,35992.56
1732,22124,36013.35
1733,22140,36034.14
1734,22164,36054.94
1735,22188,36075.73
1736,22208,36096.52
1737,22200,36117.31
1738,22148,36138.11
1739,22052,36158.90
1740,21948,36179.69
1741,21856,36200.49
1742,21796,36221.28
1743,21768,36242.07
1744,21760,36262.87
1745,21772,36283.66
1746,21792,36304.45
1747,21816,36325.24
1748,21844,36346.04
1749,21868,36366.83
1750,21884,36387.62
1751,21900,36408.42
1752,21900,36429.21
1753,21904,36450.00
1754,21904,36470.79
1755,21908,36491.59
1756,21920,36512.38
1757,21940,36533.17
1758,21956,36553.97
1759,21984,36574.76
1760,22008,36595.55
1761,22036,36616.35
1762,22064,36637.14
1763,22088,36657.93
1764,22112,36678.72
1765,22136,36699.52
1766,22164,36720.31
1767,22188,36741.10
1768,22208,36761.90
1769,22224,36782.69
1770,22200,36803.48
1771,22128,36824.27
1772,22024,36845.07
1773,21920,36865.86
1774,21840,36886.65
1775,21796,36907.45
1776,21780,36928.24
1777,21784,36949.03
1778,21804,36969.82
1779,21828,36990.62
1780,21856,37011.41
1781,21888,37032.20
1782,21904,37053.00
1783,21916,37073.79
1784,21924,37094.58
1785,21924,37115.38
1786,21920,37136.17
1787,21920,37156.96
1788,21924,37177.75
1789,21936,37198.55
1790,21952,37219.34
1791,21972,37240.13
1792,21996,37260.93
1793,22016,37281.72
1794,22036,37302.51
1795,22064,37323.30
1796,22092,37344.10
1797,22120,37364.89
1798,22144,37385.68
1799,22168,37406.48
1800,22192,37427.27
1801,22216,37448.06
1802,22232,37468.86
1803,22220,37489.65
1804,22152,37510.44
1805,22052,37531.23
1806,21956,37552.03
1807,21872,37572.82
1808,21832,37593.61
1809,21808,37614.41
1810,21816,37635.20
1811,21836,37655.99
1812,21868,37676.78
1813,21896,37697.58
1814,21928,37718.37
1815,21956,37739.16
1816,21976,37759.96
1817,21988,37780.75
1818,21988,37801.54
1819,21984,37822.33
1820,21980,37843.13
1821,21984,37863.92
1822,21992,37884.71
1823,22000,37905.51
1824,22020,37926.30
1825,22036,37947.09
1826,22056,37967.89
1827,22080,37988.68
1828,22100,38009.47
1829,22124,38030.26
1830,22148,38051.06
1831,22164,38071.85
1832,22188,38092.64
1833,22212,38113.44
1834,22224,38134.23
1835,22212,38155.02
1836,22148,38175.81
1837,22056,38196.61
1838,21960,38217.40
1839,21884,38238.19
1840,21832,38258.99
1841,21820,38279.78
1842,21820,38300.57
1843,21836,38321.37
1844,21868,38342.16
1845,21904,38362.95
1846,21940,38383.74
1847,21968,38404.54
1848,21988,38425.33
1849,21996,38446.12
1850,21992,38466.92
1851,21996,38487.71
1852,21988,38508.50
1853,21988,38529.29
1854,21996,38550.09
1855,22008,38570.88
1856,22028,38591.67
1857,22048,38612.47
1858,22072,38633.26
1859,22092,38654.05
1860,22116,38674.84
1861,22136,38695.64
1862,22160,38716.43
1863,22180,38737.22
1864,22188,38758.02
1865,22176,38778.81
1866,22112,38799.60
1867,22020,38820.40
1868,21924,38841.19
1869,21844,38861.98
1870,21792,38882.77
1871,21768,38903.57
1872,21768,38924.36
1873,21784,38945.15
1874,21812,38965.95
1875,21848,38986.74
1876,21880,39007.53
1877,21908,39028.32
1878,21932,39049.12
1879,21936,39069.91
1880,21944,39090.70
1881,21940,39111.50
1882,21940,39132.29
1883,21940,39153.08
1884,21952,39173.88
1885,21960,39194.67
1886,21984,39215.46
1887,22004,39236.25
1888,22028,39257.05
1889,22048,39277.84
1890,22076,39298.63
1891,22096,39319.43
1892,22124,39340.22
1893,22144,39361.01
1894,22144,39381.80
1895,22088,39402.60
1896,22004,39423.39
1897,21896,39444.18
1898,21804,39464.98
1899,21744,39485.77
1900,21708,39506.56
1901,21708,39527.35
1902,21716,39548.15
1903,21728,39568.94
1904,21752,39589.73
1905,21776,39610.53
1906,21800,39631.32
1907,21820,39652.11
1908,21828,39672.91
1909,21828,39693.70
1910,21824,39714.49
1911,21820,39735.28
1912,21820,39756.08
1913,21824,39776.87
1914,21840,39797.66
1915,21856,39818.46
1916,21880,39839.25
1917,21904,39860.04
1918,21928,39880.83
1919,21952,39901.63
1920,21976,39922.42
1921,22008,39943.21
1922,22028,39964.01
1923,22020,39984.80
1924,21964,40005.59
1925,21876,40026.39
1926,21768,40047.18
1927,21684,40067.97
1928,21624,40088.76
1929,21596,40109.56
1930,21592,40130.35
1931,21604,40151.14
1932,21624,40171.94
1933,21644,40192.73
1934,21668,40213.52
1935,21692,40234.31
1936,21712,40255.11
1937,21736,40275.90
1938,21744,40296.69
1939,21752,40317.49
1940,21760,40338.28
1941,21772,40359.07
1942,21784,40379.86
1943,21804,40400.66
1944,21824,40421.45
1945,21844,40442.24
1946,21872,40463.04
1947,21896,40483.83
1948,21924,40504.62
1949,21956,40525.42
1950,21980,40546.21
1951,22004,40567.00
1952,21988,40587.79
1953,21920,40608.59
1954,21824,40629.38
1955,21720,40650.17
1956,21640,40670.97
1957,21592,40691.76
1958,21568,40712.55
1959,21576,40733.34
1960,21592,40754.14
1961,21616,40774.93
1962,21640,40795.72
1963,21672,40816.52
1964,21700,40837.31
1965,21720,40858.10
1966,21740,40878.90
1967,21748,40899.69
1968,21760,40920.48
1969,21772,40941.27
1970,21776,40962.07
1971,21792,40982.86
1972,21812,41003.65
1973,21836,41024.45
1974,21864,41045.24
1975,21892,41066.03
1976,21916,41086.82
1977,21940,41107.62
1978,21968,41128.41
1979,21992,41149.20
1980,22012,41170.00
1981,22020,41190.79
1982,21968,41211.58
1983,21880,41232.37
1984,21772,41253.17
1985,21676,41273.96
1986,21608,41294.75
1987,21580,41315.55
1988,21576,41336.34
1989,21588,41357.13
1990,21604,41377.93
1991,21628,41398.72
1992,21656,41419.51
1993,21684,41440.30
1994,21700,41461.10
1995,21716,41481.89
1996,21716,41502.68
1997,21712,41523.48
1998,21716,41544.27
1999,21716,41565.06
2000,21724,41585.85
2001,21736,41606.65
2002,21756,41627.44
2003,21780,41648.23
2004,21804,41669.03
2005,21832,41689.82
2006,21856,41710.61
2007,21884,41731.41
2008,21908,41752.20
2009,21932,41772.99
2010,21960,41793.78
2011,21980,41814.58
2012,22008,41835.37
2013,22008,41856.16
2014,21964,41876.96
2015,21868,41897.75
2016,21756,41918.54
2017,21660,41939.33
2018,21596,41960.13
2019,21572,41980.92
2020,21572,42001.71
2021,21588,42022.51
2022,21612,42043.30
2023,21636,42064.09
2024,21664,42084.88
2025,21692,42105.68
2026,21712,42126.47
2027,21720,42147.26
2028,21724,42168.06
2029,21724,42188.85
2030,21728,42209.64
2031,21736,42230.44
2032,21744,42251.23
2033,21760,42272.02
2034,21776,42292.81
2035,21792,42313.61
2036,21812,42334.40
2037,21836,42355.19
2038,21860,42375.99
2039,21888,42396.78
2040,21916,42417.57
2041,21940,42438.36
2042,21960,42459.16
2043,21984,42479.95
2044,22004,42500.74
2045,22028,42521.54
2046,22048,42542.33
2047,22052,42563.12
2048,22008,42583.92
2049,21920,42604.71
2050,21812,42625.50
2051,21708,42646.29
2052,21636,42667.09
2053,21604,42687.88
2054,21600,42708.67
2055,21616,42729.47
2056,21632,42750.26
2057,21664,42771.05
2058,21692,42791.84
2059,21716,42812.64
2060,21732,42833.43
2061,21744,42854.22
2062,21748,42875.02
2063,21744,42895.81
2064,21740,42916.60
2065,21740,42937.39
2066,21744,42958.19
2067,21756,42978.98
2068,21772,42999.77
2069,21792,43020.57
2070,21820,43041.36
2071,21840,43062.15
2072,21864,43082.95
2073,21892,43103.74
2074,21916,43124.53
2075,21940,43145.32
2076,21968,43166.12
2077,21988,43186.91
2078,22016,43207.70
2079,22040,43228.50
2080,22060,43249.29
2081,22056,43270.08
2082,22000,43290.87
2083,21908,43311.67
2084,21804,43332.46
2085,21716,43353.25
2086,21660,43374.05
2087,21632,43394.84
2088,21632,43415.63
2089,21656,43436.43
2090,21688,43457.22
2091,21728,43478.01
2092,21764,43498.80
2093,21796,43519.60
2094,21820,43540.39
2095,21832,43561.18
2096,21832,43581.98
2097,21828,43602.77
2098,21832,43623.56
2099,21836,43644.35
2100,21840,43665.15
2101,21852,43685.94
2102,21868,43706.73
2103,21888,43727.53
2104,21912,43748.32
2105,21940,43769.11
2106,21960,43789.90
2107,21988,43810.70
2108,22008,43831.49
2109,22036,43852.28
2110,22060,43873.08
2111,22084,43893.87
2112,22092,43914.66
2113,22064,43935.46
2114,21980,43956.25
2115,21876,43977.04
2116,21776,43997.83
2117,21700,44018.63
2118,21664,44039.42
2119,21656,44060.21
2120,21668,44081.01
2121,21696,44101.80
2122,21728,44122.59
2123,21768,44143.38
2124,21804,44164.18
2125,21832,44184.97
2126,21852,44205.76
2127,21856,44226.56
2128,21860,44247.35
2129,21856,44268.14
2130,21860,44288.94
2131,21864,44309.73
2132,21876,44330.52
2133,21892,44351.31
2134,21912,44372.11
2135,21936,44392.90
2136,21964,44413.69
2137,21988,44434.49
2138,22020,44455.28
2139,22044,44476.07
2140,22072,44496.86
2141,22096,44517.66
2142,22116,44538.45
2143,22092,44559.24
2144,22020,44580.04
2145,21912,44600.83
2146,21800,44621.62
2147,21712,44642.41
2148,21656,44663.21
2149,21636,44684.00
2150,21640,44704.79
2151,21660,44725.59
2152,21684,44746.38
2153,21712,44767.17
2154,21740,44787.97
2155,21768,44808.76
2156,21788,44829.55
2157,21796,44850.34
2158,21804,44871.14
2159,21808,44891.93
2160,21808,44912.72
2161,21812,44933.52
2162,21816,44954.31
2163,21832,44975.10
2164,21852,44995.89
2165,21876,45016.69
2166,21904,45037.48
2167,21932,45058.27
2168,21956,45079.07
2169,21980,45099.86
2170,22008,45120.65
2171,22032,45141.45
2172,22048,45162.24
2173,22012,45183.03
2174,21924,45203.82
2175,21816,45224.62
2176,21712,45245.41
2177,21632,45266.20
2178,21588,45287.00
2179,21576,45307.79
2180,21588,45328.58
2181,21608,45349.37
2182,21632,45370.17
2183,21652,45390.96
2184,21688,45411.75
2185,21708,45432.55
2186,21728,45453.34
2187,21740,45474.13
2188,21740,45494.93
2189,21736,45515.72
2190,21740,45536.51
2191,21744,45557.30
2192,21760,45578.10
2193,21776,45598.89
2194,21792,45619.68
2195,21820,45640.48
2196,21836,45661.27
2197,21868,45682.06
2198,21892,45702.85
2199,21920,45723.65
2200,21952,45744.44
2201,21972,45765.23
2202,21964,45786.03
2203,21900,45806.82
2204,21796,45827.61
2205,21692,45848.40
2206,21608,45869.20
2207,21560,45889.99
2208,21540,45910.78
2209,21548,45931.58
2210,21572,45952.37
2211,21596,45973.16
2212,21624,45993.96
2213,21656,46014.75
2214,21688,46035.54
2215,21708,46056.33
2216,21728,46077.13
2217,21740,46097.92
2218,21748,46118.71
2219,21752,46139.51
2220,21768,46160.30
2221,21780,46181.09
2222,21800,46201.88
2223,21824,46222.68
2224,21844,46243.47
2225,21872,46264.26
2226,21896,46285.06
2227,21920,46305.85
2228,21940,46326.64
2229,21960,46347.44
2230,21984,46368.23
2231,22000,46389.02
2232,21984,46409.81
2233,21920,46430.61
2234,21812,46451.40
2235,21700,46472.19
2236,21608,46492.99
2237,21556,46513.78
2238,21536,46534.57
2239,21544,46555.36
2240,21564,46576.16
2241,21592,46596.95
2242,21620,46617.74
2243,21656,46638.54
2244,21684,46659.33
2245,21704,46680.12
2246,21720,46700.91
2247,21732,46721.71
2248,21736,46742.50
2249,21740,46763.29
2250,21748,46784.09
2251,21760,46804.88
2252,21776,46825.67
2253,21796,46846.47
2254,21816,46867.26
2255,21836,46888.05
2256,21856,46908.84
2257,21876,46929.64
2258,21904,46950.43
2259,21924,46971.22
2260,21948,46992.02
2261,21976,47012.81
2262,21980,47033.60
2263,21936,47054.39
2264,21848,47075.19
2265,21736,47095.98
2266,21640,47116.77
2267,21576,47137.57
2268,21540,47158.36
2269,21532,47179.15
2270,21540,47199.95
2271,21564,47220.74
2272,21592,47241.53
2273,21624,47262.32
2274,21660,47283.12
2275,21684,47303.91
2276,21696,47324.70
2277,21704,47345.50
2278,21696,47366.29
2279,21688,47387.08
2280,21684,47407.87
2281,21692,47428.67
2282,21708,47449.46
2283,21724,47470.25
2284,21752,47491.05
2285,21776,47511.84
2286,21804,47532.63
2287,21832,47553.42
2288,21856,47574.22
2289,21884,47595.01
2290,21916,47615.80
2291,21944,47636.60
2292,21964,47657.39
2293,21964,47678.18
2294,21916,47698.98
2295,21824,47719.77
2296,21724,47740.56
2297,21644,47761.35
2298,21592,47782.15
2299,21576,47802.94
2300,21584,47823.73
2301,21612,47844.53
2302,21644,47865.32
2303,21676,47886.11
2304,21716,47906.90
2305,21748,47927.70
2306,21768,47948.49
2307,21780,47969.28
2308,21784,47990.08
2309,21784,48010.87
2310,21784,48031.66
2311,21792,48052.46
2312,21800,48073.25
2313,21816,48094.04
2314,21836,48114.83
2315,21860,48135.63
2316,21884,48156.42
2317,21908,48177.21
2318,21936,48198.01
2319,21960,48218.80
2320,21988,48239.59
2321,22012,48260.38
2322,22028,48281.18
2323,22040,48301.97
2324,22012,48322.76
2325,21940,48343.56
2326,21840,48364.35
2327,21744,48385.14
2328,21676,48405.93
2329,21644,48426.73
2330,21636,48447.52
2331,21648,48468.31
2332,21672,48489.11
2333,21708,48509.90
2334,21744,48530.69
2335,21784,48551.49
2336,21808,48572.28
2337,21828,48593.07
2338,21836,48613.86
2339,21836,48634.66
2340,21836,48655.45
2341,21836,48676.24
2342,21844,48697.04
2343,21856,48717.83
2344,21872,48738.62
2345,21896,48759.41
2346,21916,48780.21
2347,21940,48801.00
2348,21964,48821.79
2349,21984,48842.59
2350,22012,48863.38
2351,22036,48884.17
2352,22060,48904.97
2353,22064,48925.76
2354,22028,48946.55
2355,21944,48967.34
2356,21852,48988.14
2357,21760,49008.93
2358,21700,49029.72
2359,21668,49050.52
2360,21664,49071.31
2361,21676,49092.10
2362,21696,49112.89
2363,21728,49133.69
2364,21764,49154.48
2365,21792,49175.27
2366,21812,49196.07
2367,21820,49216.86
2368,21824,49237.65
2369,21824,49258.44
2370,21820,49279.24
2371,21820,49300.03
2372,21828,49320.82
2373,21840,49341.62
2374,21856,49362.41
2375,21876,49383.20
2376,21900,49404.00
2377,21924,49424.79
2378,21948,49445.58
2379,21972,49466.37
2380,22004,49487.17
2381,22028,49507.96
2382,22024,49528.75
2383,21972,49549.55
2384,21888,49570.34
2385,21792,49591.13
2386,21712,49611.92
2387,21656,49632.72
2388,21640,49653.51
2389,21640,49674.30
2390,21660,49695.10
2391,21688,49715.89
2392,21712,49736.68
2393,21744,49757.48
2394,21776,49778.27
2395,21796,49799.06
2396,21804,49819.85
2397,21808,49840.65
2398,21808,49861.44
2399,21812,49882.23
2400,21820,49903.03
2401,21832,49923.82
2402,21852,49944.61
2403,21868,49965.40
2404,21892,49986.20
2405,21916,50006.99
2406,21936,50027.78
2407,21964,50048.58
2408,21992,50069.37
2409,22020,50090.16
2410,22020,50110.95
2411,21984,50131.75
2412,21908,50152.54
2413,21820,50173.33
2414,21744,50194.13
2415,21692,50214.92
2416,21668,50235.71
2417,21664,50256.51
2418,21676,50277.30
2419,21688,50298.09
2420,21716,50318.88
2421,21744,50339.68
2422,21772,50360.47
2423,21792,50381.26
2424,21800,50402.06
2425,21808,50422.85
2426,21808,50443.64
2427,21812,50464.43
2428,21816,50485.23
2429,21824,50506.02
2430,21840,50526.81
2431,21856,50547.61
2432,21876,50568.40
2433,21896,50589.19
2434,21924,50609.99
2435,21948,50630.78
2436,21972,50651.57
2437,21988,50672.36
2438,21988,50693.16
2439,21936,50713.95
2440,21860,50734.74
2441,21772,50755.54
2442,21700,50776.33
2443,21656,50797.12
2444,21632,50817.91
2445,21632,50838.71
2446,21640,50859.50
2447,21652,50880.29
2448,21672,50901.09
2449,21696,50921.88
2450,21720,50942.67
2451,21740,50963.46
2452,21756,50984.26
2453,21760,51005.05
2454,21768,51025.84
2455,21772,51046.64
2456,21780,51067.43
2457,21796,51088.22
2458,21808,51109.02
2459,21828,51129.81
2460,21848,51150.60
2461,21868,51171.39
2462,21896,51192.19
2463,21924,51212.98
2464,21952,51233.77
2465,21976,51254.57
2466,21988,51275.36
2467,21956,51296.15
2468,21884,51316.94
2469,21804,51337.74
2470,21728,51358.53
2471,21676,51379.32
2472,21644,51400.12
2473,21632,51420.91
2474,21636,51441.70
2475,21644,51462.50
2476,21664,51483.29
2477,21688,51504.08
2478,21708,51524.87
2479,21728,51545.67
2480,21740,51566.46
2481,21748,51587.25
2482,21756,51608.05
2483,21764,51628.84
2484,21776,51649.63
2485,21788,51670.42
2486,21804,51691.22
2487,21820,51712.01
2488,21840,51732.80
2489,21860,51753.60
2490,21884,51774.39
2491,21912,51795.18
2492,21936,51815.97
2493,21964,51836.77
2494,21992,51857.56
2495,22016,51878.35
2496,22036,51899.15
2497,22032,51919.94
2498,21988,51940.73
2499,21912,51961.53
2500,21828,51982.32
2501,21768,52003.11
2502,21732,52023.90
2503,21708,52044.70
2504,21712,52065.49
2505,21724,52086.28
2506,21736,52107.08
2507,21760,52127.87
2508,21784,52148.66
2509,21812,52169.45
2510,21832,52190.25
2511,21852,52211.04
2512,21860,52231.83
2513,21876,52252.63
2514,21884,52273.42
2515,21888,52294.21
2516,21904,52315.01
2517,21916,52335.80
2518,21932,52356.59
2519,21956,52377.38
2520,21980,52398.18
2521,22000,52418.97
2522,22028,52439.76
2523,22052,52460.56
2524,22080,52481.35
2525,22108,52502.14
2526,22132,52522.93
2527,22152,52543.73
2528,22176,52564.52
2529,22200,52585.31
2530,22220,52606.11
2531,22212,52626.90
2532,22172,52647.69
2533,22096,52668.48
2534,22012,52689.28
2535,21936,52710.07
2536,21888,52730.86
2537,21864,52751.66
2538,21860,52772.45
2539,21868,52793.24
2540,21880,52814.04
2541,21900,52834.83
2542,21924,52855.62
2543,21944,52876.41
2544,21964,52897.21
2545,21976,52918.00
2546,21984,52938.79
2547,21988,52959.59
2548,21992,52980.38
2549,22000,53001.17
2550,22012,53021.96
2551,22028,53042.76
2552,22048,53063.55
2553,22068,53084.34
2554,22092,53105.14
2555,22116,53125.93
2556,22140,53146.72
2557,22160,53167.52
2558,22184,53188.31
2559,22204,53209.10
2560,22224,53229.89
2561,22240,53250.69
2562,22260,53271.48
2563,22280,53292.27
2564,22300,53313.07
2565,22300,53333.86
2566,22264,53354.65
2567,22200,53375.44
2568,22116,53396.24
2569,22036,53417.03
2570,21976,53437.82
2571,21944,53458.62
2572,21928,53479.41
2573,21936,53500.20
2574,21948,53520.99
2575,21968,53541.79
2576,21992,53562.58
2577,22016,53583.37
2578,22032,53604.17
2579,22040,53624.96
2580,22044,53645.75
2581,22048,53666.55
2582,22048,53687.34
2583,22044,53708.13
2584,22052,53728.92
2585,22064,53749.72
2586,22076,53770.51
2587,22092,53791.30
2588,22112,53812.10
2589,22128,53832.89
2590,22152,53853.68
2591,22172,53874.47
2592,22192,53895.27
2593,22212,53916.06
2594,22240,53936.85
2595,22260,53957.65
2596,22280,53978.44
2597,22304,53999.23
2598,22320,54020.03
2599,22308,54040.82
2600,22264,54061.61
2601,22184,54082.40
2602,22100,54103.20
2603,22028,54123.99
2604,21980,54144.78
2605,21956,54165.58
2606,21956,54186.37
2607,21964,54207.16
2608,21980,54227.95
2609,22004,54248.75
2610,22028,54269.54
2611,22044,54290.33
2612,22056,54311.13
2613,22060,54331.92
2614,22060,54352.71
2615,22060,54373.50
2616,22060,54394.30
2617,22064,54415.09
2618,22068,54435.88
2619,22080,54456.68
2620,22100,54477.47
2621,22120,54498.26
2622,22136,54519.06
2623,22160,54539.85
2624,22180,54560.64
2625,22200,54581.43
2626,22224,54602.23
2627,22248,54623.02
2628,22272,54643.81
2629,22296,54664.61
2630,22304,54685.40
2631,22280,54706.19
2632,22216,54726.98
2633,22132,54747.78
2634,22048,54768.57
2635,21984,54789.36
2636,21944,54810.16
2637,21928,54830.95
2638,21932,54851.74
2639,21940,54872.54
2640,21960,54893.33
2641,21984,54914.12
2642,22000,54934.91
2643,22020,54955.71
2644,22036,54976.50
2645,22040,54997.29
2646,22040,55018.09
2647,22036,55038.88
2648,22036,55059.67
2649,22036,55080.46
2650,22044,55101.26
2651,22056,55122.05
2652,22064,55142.84
2653,22080,55163.64
2654,22100,55184.43
2655,22124,55205.22
2656,22148,55226.01
2657,22164,55246.81
2658,22188,55267.60
2659,22208,55288.39
2660,22224,55309.19
2661,22228,55329.98
2662,22188,55350.77
2663,22112,55371.57
2664,22016,55392.36
2665,21928,55413.15
2666,21860,55433.94
2667,21828,55454.74
2668,21816,55475.53
2669,21820,55496.32
2670,21836,55517.12
2671,21856,55537.91
2672,21884,55558.70
2673,21904,55579.49
2674,21924,55600.29
2675,21940,55621.08
2676,21952,55641.87
2677,21956,55662.67
2678,21952,55683.46
2679,21952,55704.25
2680,21952,55725.05
2681,21956,55745.84
2682,21964,55766.63
2683,21980,55787.42
2684,22000,55808.22
2685,22016,55829.01
2686,22032,55849.80
2687,22052,55870.60
2688,22072,55891.39
2689,22088,55912.18
2690,22104,55932.97
2691,22096,55953.77
2692,22044,55974.56
2693,21960,55995.35
2694,21856,56016.15
2695,21772,56036.94
2696,21716,56057.73
2697,21684,56078.53
2698,21684,56099.32
2699,21692,56120.11
2700,21712,56140.90
2701,21732,56161.70
2702,21756,56182.49
2703,21784,56203.28
2704,21800,56224.08
2705,21812,56244.87
2706,21824,56265.66
2707,21828,56286.45
2708,21832,56307.25
2709,21836,56328.04
2710,21844,56348.83
2711,21860,56369.63
2712,21872,56390.42
2713,21892,56411.21
2714,21912,56432.00
2715,21932,56452.80
2716,21952,56473.59
2717,21976,56494.38
2718,22000,56515.18
2719,22024,56535.97
2720,22028,56556.76
2721,21984,56577.56
2722,21904,56598.35
2723,21804,56619.14
2724,21716,56639.93
2725,21656,56660.73
2726,21624,56681.52
2727,21620,56702.31
2728,21632,56723.11
2729,21652,56743.90
2730,21676,56764.69
2731,21708,56785.48
2732,21736,56806.28
2733,21760,56827.07
2734,21776,56847.86
2735,21788,56868.66
2736,21796,56889.45
2737,21800,56910.24
2738,21812,56931.04
2739,21828,56951.83
2740,21840,56972.62
2741,21860,56993.41
2742,21884,57014.21
2743,21904,57035.00
2744,21932,57055.79
2745,21956,57076.59
2746,21980,57097.38
2747,22012,57118.17
2748,22032,57138.96
2749,22052,57159.76
2750,22040,57180.55
2751,21984,57201.34
2752,21892,57222.14
2753,21784,57242.93
2754,21704,57263.72
2755,21656,57284.51
2756,21632,57305.31
2757,21636,57326.10
2758,21656,57346.89
2759,21680,57367.69
2760,21708,57388.48
2761,21736,57409.27
2762,21764,57430.07
2763,21780,57450.86
2764,21796,57471.65
2765,21808,57492.44
2766,21812,57513.24
2767,21816,57534.03
2768,21816,57554.82
2769,21828,57575.62
2770,21844,57596.41
2771,21868,57617.20
2772,21888,57637.99
2773,21912,57658.79
2774,21936,57679.58
2775,21960,57700.37
2776,21984,57721.17
2777,22012,57741.96
2778,22040,57762.75
2779,22068,57783.55
2780,22084,57804.34
2781,22048,57825.13
2782,21972,57845.92
2783,21876,57866.72
2784,21780,57887.51
2785,21720,57908.30
2786,21684,57929.10
2787,21680,57949.89
2788,21692,57970.68
2789,21716,57991.47
2790,21748,58012.27
2791,21780,58033.06
2792,21812,58053.85
2793,21836,58074.65
2794,21860,58095.44
2795,21868,58116.23
2796,21876,58137.02
2797,21880,58157.82
2798,21884,58178.61
2799,21892,58199.40
2800,21904,58220.20
2801,21920,58240.99
2802,21948,58261.78
2803,21972,58282.58
2804,21992,58303.37
2805,22016,58324.16
2806,22040,58344.95
2807,22064,58365.75
2808,22080,58386.54
2809,22104,58407.33
2810,22128,58428.13
2811,22132,58448.92
2812,22092,58469.71
2813,22008,58490.50
2814,21900,58511.30
2815,21808,58532.09
2816,21748,58552.88
2817,21720,58573.68
2818,21716,58594.47
2819,21732,58615.26
2820,21756,58636.06
2821,21788,58656.85
2822,21820,58677.64
2823,21852,58698.43
2824,21876,58719.23
2825,21892,58740.02
2826,21900,58760.81
2827,21904,58781.61
2828,21904,58802.40
2829,21904,58823.19
2830,21912,58843.98
2831,21920,58864.78
2832,21936,58885.57
2833,21956,58906.36
2834,21976,58927.16
2835,22004,58947.95
2836,22028,58968.74
2837,22052,58989.53
2838,22080,59010.33
2839,22104,59031.12
2840,22124,59051.91
2841,22148,59072.71
2842,22136,59093.50
2843,22084,59114.29
2844,21996,59135.09
2845,21892,59155.88
2846,21812,59176.67
2847,21760,59197.46
2848,21744,59218.26
2849,21752,59239.05
2850,21776,59259.84
2851,21804,59280.64
2852,21840,59301.43
2853,21872,59322.22
2854,21904,59343.01
2855,21924,59363.81
2856,21932,59384.60
2857,21936,59405.39
2858,21940,59426.19
2859,21940,59446.98
2860,21944,59467.77
2861,21956,59488.57
2862,21968,59509.36
2863,21988,59530.15
2864,22004,59550.94
2865,22028,59571.74
2866,22056,59592.53
2867,22080,59613.32
2868,22104,59634.12
2869,22132,59654.91
2870,22156,59675.70
2871,22172,59696.49
2872,22148,59717.29
2873,22088,59738.08
2874,21996,59758.87
2875,21904,59779.67
2876,21836,59800.46
2877,21796,59821.25
2878,21792,59842.04
2879,21804,59862.84
2880,21828,59883.63
2881,21860,59904.42
2882,21892,59925.22
2883,21928,59946.01
2884,21952,59966.80
2885,21972,59987.60
2886,21980,60008.39
2887,21984,60029.18
2888,21984,60049.97
2889,21988,60070.77
2890,21992,60091.56
2891,22004,60112.35
2892,22020,60133.15
2893,22036,60153.94
2894,22060,60174.73
2895,22084,60195.52
2896,22104,60216.32
2897,22124,60237.11
2898,22152,60257.90
2899,22172,60278.70
2900,22192,60299.49
2901,22180,60320.28
2902,22124,60341.08
2903,22040,60361.87
2904,21940,60382.66
2905,21860,60403.45
2906,21808,60424.25
2907,21788,60445.04
2908,21792,60465.83
2909,21808,60486.63
2910,21836,60507.42
2911,21864,60528.21
2912,21896,60549.00
2913,21924,60569.80
2914,21948,60590.59
2915,21964,60611.38
2916,21976,60632.18
2917,21980,60652.97
2918,21984,60673.76
2919,21988,60694.55
2920,21996,60715.35
2921,22012,60736.14
2922,22032,60756.93
2923,22052,60777.73
2924,22076,60798.52
2925,22100,60819.31
2926,22120,60840.11
2927,22148,60860.90
2928,22172,60881.69
2929,22192,60902.48
2930,22196,60923.28
2931,22148,60944.07
2932,22068,60964.86
2933,21976,60985.66
2934,21888,61006.45
2935,21832,61027.24
2936,21804,61048.03
2937,21796,61068.83
2938,21808,61089.62
2939,21824,61110.41
2940,21848,61131.21
2941,21876,61152.00
2942,21896,61172.79
2943,21916,61193.59
2944,21928,61214.38
2945,21940,61235.17
2946,21944,61255.96
2947,21940,61276.76
2948,21944,61297.55
2949,21952,61318.34
2950,21964,61339.14
2951,21980,61359.93
2952,22008,61380.72
2953,22032,61401.51
2954,22052,61422.31
2955,22076,61443.10
2956,22104,61463.89
2957,22128,61484.69
2958,22152,61505.48
2959,22164,61526.27
2960,22144,61547.06
2961,22076,61567.86
2962,21988,61588.65
2963,21900,61609.44
2964,21828,61630.24
2965,21796,61651.03
2966,21784,61671.82
2967,21792,61692.62
2968,21808,61713.41
2969,21828,61734.20
2970,21852,61754.99
2971,21872,61775.79
2972,21896,61796.58
2973,21912,61817.37
2974,21932,61838.17
2975,21936,61858.96
2976,21940,61879.75
2977,21944,61900.54
2978,21952,61921.34
2979,21968,61942.13
2980,21992,61962.92
2981,22012,61983.72
2982,22032,62004.51
2983,22052,62025.30
2984,22072,62046.10
2985,22088,62066.89
2986,22108,62087.68
2987,22128,62108.47
2988,22148,62129.27
2989,22160,62150.06
2990,22152,62170.85
2991,22100,62191.65
2992,22008,62212.44
2993,21920,62233.23
2994,21840,62254.02
2995,21788,62274.82
2996,21764,62295.61
2997,21764,62316.40
2998,21768,62337.20
2999,21792,62357.99
