Sample_Index,IR_Value,Timestamp_ms
0,24700,0.00
1,24700,20.70
2,24700,41.41
3,24700,62.11
4,24704,82.82
5,24708,103.52
6,24712,124.22
7,24720,144.93
8,24724,165.63
9,24728,186.33
10,24728,207.04
11,24724,227.74
12,24724,248.45
13,24720,269.15
14,24720,289.85
15,24720,310.56
16,24728,331.26
17,24740,351.97
18,24748,372.67
19,24760,393.37
20,24768,414.08
21,24788,434.78
22,24796,455.48
23,24804,476.19
24,24820,496.89
25,24828,517.60
26,24840,538.30
27,24852,559.00
28,24864,579.71
29,24876,600.41
30,24884,621.12
31,24884,641.82
32,24880,662.52
33,24864,683.23
34,24836,703.93
35,24812,724.63
36,24788,745.34
37,24764,766.04
38,24756,786.75
39,24748,807.45
40,24748,828.15
41,24740,848.86
42,24744,869.56
43,24744,890.27
44,24744,910.97
45,24748,931.67
46,24748,952.38
47,24752,973.08
48,24748,993.78
49,24744,1014.49
50,24740,1035.19
51,24740,1055.90
52,24740,1076.60
53,24744,1097.30
54,24756,1118.01
55,24760,1138.71
56,24772,1159.42
57,24784,1180.12
58,24788,1200.82
59,24804,1221.53
60,24812,1242.23
61,24824,1262.93
62,24832,1283.64
63,24844,1304.34
64,24852,1325.05
65,24864,1345.75
66,24876,1366.45
67,24888,1387.16
68,24896,1407.86
69,24896,1428.57
70,24884,1449.27
71,24860,1469.97
72,24828,1490.68
73,24796,1511.38
74,24772,1532.09
75,24756,1552.79
76,24744,1573.49
77,24736,1594.20
78,24732,1614.90
79,24728,1635.60
80,24724,1656.31
81,24724,1677.01
82,24724,1697.72
83,24724,1718.42
84,24724,1739.12
85,24724,1759.83
86,24720,1780.53
87,24716,1801.24
88,24712,1821.94
89,24712,1842.64
90,24708,1863.35
91,24712,1884.05
92,24720,1904.75
93,24732,1925.46
94,24740,1946.16
95,24748,1966.87
96,24756,1987.57
97,24764,2008.27
98,24772,2028.98
99,24784,2049.68
100,24788,2070.39
101,24800,2091.09
102,24812,2111.79
103,24820,2132.50
104,24828,2153.20
105,24844,2173.90
106,24852,2194.61
107,24844,2215.31
108,24832,2236.02
109,24804,2256.72
110,24772,2277.42
111,24740,2298.13
112,24720,2318.83
113,24700,2339.54
114,24684,2360.24
115,24672,2380.94
116,24672,2401.65
117,24668,2422.35
118,24664,2443.05
119,24664,2463.76
120,24668,2484.46
121,24672,2505.17
122,24668,2525.87
123,24668,2546.57
124,24668,2567.28
125,24664,2587.98
126,24660,2608.69
127,24660,2629.39
128,24668,2650.09
129,24672,2670.80
130,24680,2691.50
131,24688,2712.20
132,24696,2732.91
133,24708,2753.61
134,24712,2774.32
135,24724,2795.02
136,24736,2815.72
137,24744,2836.43
138,24756,2857.13
139,24768,2877.84
140,24772,2898.54
141,24784,2919.24
142,24792,2939.95
143,24800,2960.65
144,24808,2981.35
145,24816,3002.06
146,24824,3022.76
147,24820,3043.47
148,24804,3064.17
149,24768,3084.87
150,24740,3105.58
151,24704,3126.28
152,24680,3146.99
153,24664,3167.69
154,24648,3188.39
155,24644,3209.10
156,24636,3229.80
157,24640,3250.50
158,24640,3271.21
159,24640,3291.91
160,24648,3312.62
161,24648,3333.32
162,24648,3354.02
163,24644,3374.73
164,24640,3395.43
165,24632,3416.14
166,24632,3436.84
167,24632,3457.54
168,24624,3478.25
169,24628,3498.95
170,24632,3519.65
171,24636,3540.36
172,24640,3561.06
173,24644,3581.77
174,24648,3602.47
175,24652,3623.17
176,24660,3643.88
177,24664,3664.58
178,24676,3685.29
179,24676,3705.99
180,24680,3726.69
181,24688,3747.40
182,24680,3768.10
183,24684,3788.80
184,24688,3809.51
185,24688,3830.21
186,24684,3850.92
187,24680,3871.62
188,24652,3892.32
189,24616,3913.03
190,24572,3933.73
191,24528,3954.44
192,24492,3975.14
193,24472,3995.84
194,24456,4016.55
195,24444,4037.25
196,24440,4057.95
197,24436,4078.66
198,24440,4099.36
199,24444,4120.07
200,24444,4140.77
201,24440,4161.47
202,24436,4182.18
203,24432,4202.88
204,24432,4223.59
205,24432,4244.29
206,24428,4264.99
207,24432,4285.70
208,24436,4306.40
209,24444,4327.11
210,24448,4347.81
211,24460,4368.51
212,24472,4389.22
213,24484,4409.92
214,24496,4430.62
215,24512,4451.33
216,24528,4472.03
217,24532,4492.74
218,24548,4513.44
219,24556,4534.14
220,24564,4554.85
221,24572,4575.55
222,24584,4596.26
223,24592,4616.96
224,24600,4637.66
225,24592,4658.37
226,24576,4679.07
227,24548,4699.77
228,24520,4720.48
229,24488,4741.18
230,24468,4761.89
231,24444,4782.59
232,24440,4803.29
233,24432,4824.00
234,24432,4844.70
235,24436,4865.41
236,24444,4886.11
237,24452,4906.81
238,24456,4927.52
239,24452,4948.22
240,24452,4968.92
241,24440,4989.63
242,24436,5010.33
243,24432,5031.04
244,24436,5051.74
245,24436,5072.44
246,24440,5093.15
247,24448,5113.85
248,24452,5134.56
249,24460,5155.26
250,24468,5175.96
251,24476,5196.67
252,24484,5217.37
253,24492,5238.07
254,24504,5258.78
255,24512,5279.48
256,24520,5300.19
257,24528,5320.89
258,24528,5341.59
259,24512,5362.30
260,24488,5383.00
261,24460,5403.71
262,24432,5424.41
263,24400,5445.11
264,24380,5465.82
265,24364,5486.52
266,24356,5507.22
267,24352,5527.93
268,24356,5548.63
269,24360,5569.34
270,24368,5590.04
271,24368,5610.74
272,24368,5631.45
273,24368,5652.15
274,24364,5672.86
275,24360,5693.56
276,24352,5714.26
277,24348,5734.97
278,24344,5755.67
279,24348,5776.37
280,24356,5797.08
281,24368,5817.78
282,24380,5838.49
283,24388,5859.19
284,24404,5879.89
285,24416,5900.60
286,24436,5921.30
287,24448,5942.01
288,24456,5962.71
289,24468,5983.41
290,24468,6004.12
291,24444,6024.82
292,24412,6045.52
293,24368,6066.23
294,24328,6086.93
295,24292,6107.64
296,24264,6128.34
297,24252,6149.04
298,24244,6169.75
299,24240,6190.45
300,24248,6211.16
301,24260,6231.86
302,24264,6252.56
303,24268,6273.27
304,24268,6293.97
305,24256,6314.67
306,24248,6335.38
307,24232,6356.08
308,24220,6376.79
309,24220,6397.49
310,24220,6418.19
311,24224,6438.90
312,24232,6459.60
313,24240,6480.31
314,24244,6501.01
315,24252,6521.71
316,24264,6542.42
317,24272,6563.12
318,24284,6583.82
319,24296,6604.53
320,24308,6625.23
321,24316,6645.94
322,24324,6666.64
323,24312,6687.34
324,24276,6708.05
325,24228,6728.75
326,24176,6749.46
327,24120,6770.16
328,24084,6790.86
329,24064,6811.57
330,24048,6832.27
331,24044,6852.98
332,24040,6873.68
333,24040,6894.38
334,24040,6915.09
335,24044,6935.79
336,24048,6956.49
337,24056,6977.20
338,24056,6997.90
339,24052,7018.61
340,24048,7039.31
341,24044,7060.01
342,24052,7080.72
343,24056,7101.42
344,24060,7122.13
345,24072,7142.83
346,24084,7163.53
347,24100,7184.24
348,24116,7204.94
349,24136,7225.64
350,24152,7246.35
351,24172,7267.05
352,24188,7287.76
353,24208,7308.46
354,24216,7329.16
355,24236,7349.87
356,24256,7370.57
357,24276,7391.28
358,24296,7411.98
359,24304,7432.68
360,24292,7453.39
361,24272,7474.09
362,24244,7494.79
363,24212,7515.50
364,24192,7536.20
365,24180,7556.91
366,24180,7577.61
367,24188,7598.31
368,24196,7619.02
369,24208,7639.72
370,24216,7660.43
371,24232,7681.13
372,24244,7701.83
373,24264,7722.54
374,24276,7743.24
375,24284,7763.94
376,24296,7784.65
377,24304,7805.35
378,24316,7826.06
379,24328,7846.76
380,24340,7867.46
381,24348,7888.17
382,24364,7908.87
383,24380,7929.58
384,24392,7950.28
385,24408,7970.98
386,24424,7991.69
387,24440,8012.39
388,24456,8033.09
389,24472,8053.80
390,24484,8074.50
391,24500,8095.21
392,24512,8115.91
393,24532,8136.61
394,24548,8157.32
395,24564,8178.02
396,24580,8198.73
397,24600,8219.43
398,24616,8240.13
399,24632,8260.84
400,24652,8281.54
401,24660,8302.24
402,24668,8322.95
403,24660,8343.65
404,24648,8364.36
405,24636,8385.06
406,24632,8405.76
407,24628,8426.47
408,24628,8447.17
409,24636,8467.88
410,24640,8488.58
411,24644,8509.28
412,24652,8529.99
413,24664,8550.69
414,24672,8571.39
415,24684,8592.10
416,24688,8612.80
417,24692,8633.51
418,24696,8654.21
419,24700,8674.91
420,24700,8695.62
421,24708,8716.32
422,24716,8737.03
423,24728,8757.73
424,24732,8778.43
425,24744,8799.14
426,24756,8819.84
427,24764,8840.54
428,24772,8861.25
429,24780,8881.95
430,24788,8902.66
431,24800,8923.36
432,24812,8944.06
433,24824,8964.77
434,24832,8985.47
435,24840,9006.18
436,24856,9026.88
437,24872,9047.58
438,24880,9068.29
439,24888,9088.99
440,24900,9109.69
441,24912,9130.40
442,24928,9151.10
443,24940,9171.81
444,24956,9192.51
445,24964,9213.21
446,24972,9233.92
447,24972,9254.62
448,24972,9275.33
449,24968,9296.03
450,24960,9316.73
451,24964,9337.44
452,24968,9358.14
453,24972,9378.84
454,24980,9399.55
455,24988,9420.25
456,24996,9440.96
457,25000,9461.66
458,25008,9482.36
459,25012,9503.07
460,25016,9523.77
461,25024,9544.48
462,25028,9565.18
463,25032,9585.88
464,25036,9606.59
465,25044,9627.29
466,25048,9648.00
467,25048,9668.70
468,25060,9689.40
469,25064,9710.11
470,25076,9730.81
471,25080,9751.51
472,25088,9772.22
473,25100,9792.92
474,25108,9813.63
475,25120,9834.33
476,25124,9855.03
477,25132,9875.74
478,25144,9896.44
479,25148,9917.15
480,25156,9937.85
481,25168,9958.55
482,25176,9979.26
483,25184,9999.96
484,25192,10020.66
485,25196,10041.37
486,25204,10062.07
487,25212,10082.78
488,25224,10103.48
489,25232,10124.18
490,25236,10144.89
491,25240,10165.59
492,25236,10186.30
493,25228,10207.00
494,25228,10227.70
495,25232,10248.41
496,25236,10269.11
497,25240,10289.81
498,25248,10310.52
499,25256,10331.22
500,25264,10351.93
501,25272,10372.63
502,25272,10393.33
503,25280,10414.04
504,25280,10434.74
505,25280,10455.45
506,25280,10476.15
507,25280,10496.85
508,25284,10517.56
509,25292,10538.26
510,25300,10558.96
511,25304,10579.67
512,25308,10600.37
513,25316,10621.08
514,25324,10641.78
515,25332,10662.48
516,25336,10683.19
517,25340,10703.89
518,25348,10724.60
519,25360,10745.30
520,25360,10766.00
521,25368,10786.71
522,25372,10807.41
523,25376,10828.11
524,25384,10848.82
525,25388,10869.52
526,25392,10890.23
527,25400,10910.93
528,25404,10931.63
529,25408,10952.34
530,25412,10973.04
531,25412,10993.75
532,25404,11014.45
533,25400,11035.15
534,25400,11055.86
535,25400,11076.56
536,25404,11097.26
537,25408,11117.97
538,25412,11138.67
539,25416,11159.38
540,25424,11180.08
541,25432,11200.78
542,25436,11221.49
543,25436,11242.19
544,25436,11262.90
545,25436,11283.60
546,25440,11304.30
547,25440,11325.01
548,25444,11345.71
549,25448,11366.41
550,25456,11387.12
551,25460,11407.82
552,25464,11428.53
553,25468,11449.23
554,25472,11469.93
555,25480,11490.64
556,25484,11511.34
557,25484,11532.05
558,25492,11552.75
559,25496,11573.45
560,25496,11594.16
561,25500,11614.86
562,25504,11635.56
563,25508,11656.27
564,25508,11676.97
565,25516,11697.68
566,25520,11718.38
567,25516,11739.08
568,25512,11759.79
569,25508,11780.49
570,25508,11801.20
571,25508,11821.90
572,25508,11842.60
573,25508,11863.31
574,25512,11884.01
575,25516,11904.71
576,25520,11925.42
577,25524,11946.12
578,25528,11966.83
579,25532,11987.53
580,25528,12008.23
581,25528,12028.94
582,25528,12049.64
583,25528,12070.35
584,25528,12091.05
585,25536,12111.75
586,25536,12132.46
587,25540,12153.16
588,25548,12173.86
589,25548,12194.57
590,25552,12215.27
591,25556,12235.98
592,25560,12256.68
593,25564,12277.38
594,25568,12298.09
595,25572,12318.79
596,25572,12339.50
597,25576,12360.20
598,25580,12380.90
599,25580,12401.61
600,25580,12422.31
601,25576,12443.02
602,25572,12463.72
603,25564,12484.42
604,25568,12505.13
605,25568,12525.83
606,25572,12546.53
607,25572,12567.24
608,25580,12587.94
609,25580,12608.65
610,25584,12629.35
611,25584,12650.05
612,25584,12670.76
613,25584,12691.46
614,25584,12712.17
615,25584,12732.87
616,25588,12753.57
617,25584,12774.28
618,25584,12794.98
619,25584,12815.68
620,25580,12836.39
621,25584,12857.09
622,25588,12877.80
623,25592,12898.50
624,25596,12919.20
625,25600,12939.91
626,25604,12960.61
627,25608,12981.32
628,25608,13002.02
629,25612,13022.72
630,25620,13043.43
631,25616,13064.13
632,25620,13084.83
633,25624,13105.54
634,25628,13126.24
635,25636,13146.95
636,25636,13167.65
637,25640,13188.35
638,25644,13209.06
639,25636,13229.76
640,25632,13250.47
641,25628,13271.17
642,25632,13291.87
643,25636,13312.58
644,25640,13333.28
645,25644,13353.98
646,25652,13374.69
647,25656,13395.39
648,25652,13416.10
649,25656,13436.80
650,25656,13457.50
651,25656,13478.21
652,25656,13498.91
653,25656,13519.62
654,25660,13540.32
655,25660,13561.02
656,25656,13581.73
657,25660,13602.43
658,25664,13623.13
659,25664,13643.84
660,25668,13664.54
661,25668,13685.25
662,25672,13705.95
663,25672,13726.65
664,25676,13747.36
665,25680,13768.06
666,25684,13788.77
667,25688,13809.47
668,25688,13830.17
669,25692,13850.88
670,25696,13871.58
671,25700,13892.28
672,25700,13912.99
673,25708,13933.69
674,25708,13954.40
675,25712,13975.10
676,25720,13995.80
677,25720,14016.51
678,25720,14037.21
679,25724,14057.92
680,25728,14078.62
681,25732,14099.32
682,25736,14120.03
683,25736,14140.73
684,25740,14161.43
685,25732,14182.14
686,25720,14202.84
687,25716,14223.55
688,25708,14244.25
689,25704,14264.95
690,25704,14285.66
691,25700,14306.36
692,25704,14327.07
693,25704,14347.77
694,25704,14368.47
695,25704,14389.18
696,25708,14409.88
697,25708,14430.58
698,25704,14451.29
699,25704,14471.99
700,25700,14492.70
701,25700,14513.40
702,25700,14534.10
703,25704,14554.81
704,25704,14575.51
705,25704,14596.22
706,25708,14616.92
707,25708,14637.62
708,25712,14658.33
709,25716,14679.03
710,25716,14699.73
711,25716,14720.44
712,25724,14741.14
713,25724,14761.85
714,25728,14782.55
715,25732,14803.25
716,25732,14823.96
717,25732,14844.66
718,25732,14865.37
719,25732,14886.07
720,25736,14906.77
721,25736,14927.48
722,25740,14948.18
723,25736,14968.88
724,25740,14989.59
725,25744,15010.29
726,25744,15031.00
727,25740,15051.70
728,25740,15072.40
729,25744,15093.11
730,25740,15113.81
731,25740,15134.52
732,25740,15155.22
733,25732,15175.92
734,25720,15196.63
735,25708,15217.33
736,25700,15238.04
737,25692,15258.74
738,25688,15279.44
739,25688,15300.15
740,25688,15320.85
741,25692,15341.55
742,25692,15362.26
743,25684,15382.96
744,25688,15403.67
745,25688,15424.37
746,25684,15445.07
747,25680,15465.78
748,25680,15486.48
749,25676,15507.19
750,25676,15527.89
751,25672,15548.59
752,25676,15569.30
753,25676,15590.00
754,25676,15610.70
755,25672,15631.41
756,25672,15652.11
757,25672,15672.82
758,25672,15693.52
759,25668,15714.22
760,25672,15734.93
761,25672,15755.63
762,25676,15776.34
763,25672,15797.04
764,25672,15817.74
765,25668,15838.45
766,25664,15859.15
767,25660,15879.85
768,25664,15900.56
769,25660,15921.26
770,25660,15941.97
771,25660,15962.67
772,25664,15983.37
773,25656,16004.08
774,25652,16024.78
775,25648,16045.49
776,25648,16066.19
777,25644,16086.89
778,25636,16107.60
779,25636,16128.30
780,25632,16149.00
781,25624,16169.71
782,25616,16190.41
783,25600,16211.12
784,25584,16231.82
785,25564,16252.52
786,25556,16273.23
787,25548,16293.93
788,25548,16314.64
789,25544,16335.34
790,25544,16356.04
791,25540,16376.75
792,25540,16397.45
793,25532,16418.15
794,25528,16438.86
795,25520,16459.56
796,25516,16480.27
797,25516,16500.97
798,25504,16521.67
799,25500,16542.38
800,25496,16563.08
801,25492,16583.79
802,25492,16604.49
803,25488,16625.19
804,25488,16645.90
805,25488,16666.60
806,25484,16687.30
807,25488,16708.01
808,25492,16728.71
809,25492,16749.42
810,25488,16770.12
811,25488,16790.82
812,25488,16811.53
813,25492,16832.23
814,25492,16852.94
815,25488,16873.64
816,25492,16894.34
817,25492,16915.05
818,25500,16935.75
819,25504,16956.45
820,25508,16977.16
821,25512,16997.86
822,25520,17018.57
823,25524,17039.27
824,25528,17059.97
825,25536,17080.68
826,25540,17101.38
827,25548,17122.09
828,25544,17142.79
829,25544,17163.49
830,25528,17184.20
831,25516,17204.90
832,25504,17225.60
833,25492,17246.31
834,25488,17267.01
835,25488,17287.72
836,25488,17308.42
837,25492,17329.12
838,25488,17349.83
839,25488,17370.53
840,25488,17391.24
841,25488,17411.94
842,25480,17432.64
843,25480,17453.35
844,25476,17474.05
845,25476,17494.75
846,25472,17515.46
847,25468,17536.16
848,25464,17556.87
849,25464,17577.57
850,25464,17598.27
851,25468,17618.98
852,25464,17639.68
853,25464,17660.39
854,25472,17681.09
855,25472,17701.79
856,25476,17722.50
857,25480,17743.20
858,25480,17763.91
859,25480,17784.61
860,25484,17805.31
861,25484,17826.02
862,25488,17846.72
863,25488,17867.42
864,25492,17888.13
865,25492,17908.83
866,25500,17929.54
867,25504,17950.24
868,25504,17970.94
869,25500,17991.65
870,25488,18012.35
871,25480,18033.06
872,25464,18053.76
873,25452,18074.46
874,25444,18095.17
875,25432,18115.87
876,25428,18136.57
877,25428,18157.28
878,25424,18177.98
879,25420,18198.69
880,25420,18219.39
881,25416,18240.09
882,25416,18260.80
883,25412,18281.50
884,25404,18302.21
885,25400,18322.91
886,25396,18343.61
887,25388,18364.32
888,25384,18385.02
889,25380,18405.72
890,25376,18426.43
891,25380,18447.13
892,25380,18467.84
893,25384,18488.54
894,25388,18509.24
895,25388,18529.95
896,25392,18550.65
897,25392,18571.36
898,25392,18592.06
899,25396,18612.76
900,25396,18633.47
901,25400,18654.17
902,25400,18674.87
903,25400,18695.58
904,25388,18716.28
905,25372,18736.99
906,25360,18757.69
907,25344,18778.39
908,25328,18799.10
909,25324,18819.80
910,25316,18840.51
911,25316,18861.21
912,25316,18881.91
913,25316,18902.62
914,25316,18923.32
915,25312,18944.02
916,25312,18964.73
917,25304,18985.43
918,25296,19006.14
919,25288,19026.84
920,25276,19047.54
921,25272,19068.25
922,25268,19088.95
923,25264,19109.66
924,25260,19130.36
925,25256,19151.06
926,25252,19171.77
927,25252,19192.47
928,25248,19213.17
929,25256,19233.88
930,25256,19254.58
931,25256,19275.29
932,25260,19295.99
933,25252,19316.69
934,25256,19337.40
935,25256,19358.10
936,25244,19378.81
937,25224,19399.51
938,25204,19420.21
939,25176,19440.92
940,25156,19461.62
941,25140,19482.32
942,25128,19503.03
943,25116,19523.73
944,25112,19544.44
945,25104,19565.14
946,25100,19585.84
947,25096,19606.55
948,25096,19627.25
949,25092,19647.96
950,25088,19668.66
951,25080,19689.36
952,25068,19710.07
953,25060,19730.77
954,25052,19751.47
955,25044,19772.18
956,25040,19792.88
957,25032,19813.59
958,25032,19834.29
959,25024,19854.99
960,25028,19875.70
961,25028,19896.40
962,25028,19917.11
963,25028,19937.81
964,25028,19958.51
965,25028,19979.22
966,25028,19999.92
967,25028,20020.62
968,25028,20041.33
969,25036,20062.03
970,25040,20082.74
971,25040,20103.44
972,25044,20124.14
973,25052,20144.85
974,25056,20165.55
975,25052,20186.26
976,25044,20206.96
977,25020,20227.66
978,24988,20248.37
979,24960,20269.07
980,24928,20289.77
981,24908,20310.48
982,24888,20331.18
983,24880,20351.89
984,24868,20372.59
985,24852,20393.29
986,24844,20414.00
987,24836,20434.70
988,24824,20455.41
989,24816,20476.11
990,24808,20496.81
991,24800,20517.52
992,24792,20538.22
993,24784,20558.93
994,24776,20579.63
995,24764,20600.33
996,24760,20621.04
997,24752,20641.74
998,24752,20662.44
999,24752,20683.15
1000,24752,20703.85
1001,24756,20724.56
1002,24760,20745.26
1003,24764,20765.96
1004,24768,20786.67
1005,24772,20807.37
1006,24768,20828.08
1007,24764,20848.78
1008,24768,20869.48
1009,24768,20890.19
1010,24772,20910.89
1011,24784,20931.59
1012,24792,20952.30
1013,24800,20973.00
1014,24804,20993.71
1015,24808,21014.41
1016,24812,21035.11
1017,24816,21055.82
1018,24824,21076.52
1019,24812,21097.23
1020,24796,21117.93
1021,24772,21138.63
1022,24736,21159.34
1023,24704,21180.04
1024,24680,21200.74
1025,24668,21221.45
1026,24656,21242.15
1027,24644,21262.86
1028,24640,21283.56
1029,24636,21304.26
1030,24628,21324.97
1031,24624,21345.67
1032,24624,21366.38
1033,24620,21387.08
1034,24616,21407.78
1035,24612,21428.49
1036,24600,21449.19
1037,24596,21469.89
1038,24592,21490.60
1039,24588,21511.30
1040,24588,21532.01
1041,24596,21552.71
1042,24604,21573.41
1043,24608,21594.12
1044,24612,21614.82
1045,24620,21635.53
1046,24632,21656.23
1047,24640,21676.93
1048,24648,21697.64
1049,24656,21718.34
1050,24664,21739.04
1051,24672,21759.75
1052,24676,21780.45
1053,24680,21801.16
1054,24684,21821.86
1055,24688,21842.56
1056,24688,21863.27
1057,24692,21883.97
1058,24696,21904.68
1059,24700,21925.38
1060,24704,21946.08
1061,24708,21966.79
1062,24716,21987.49
1063,24720,22008.19
1064,24728,22028.90
1065,24732,22049.60
1066,24740,22070.31
1067,24740,22091.01
1068,24736,22111.71
1069,24716,22132.42
1070,24688,22153.12
1071,24660,22173.83
1072,24628,22194.53
1073,24612,22215.23
1074,24600,22235.94
1075,24596,22256.64
1076,24592,22277.34
1077,24588,22298.05
1078,24584,22318.75
1079,24580,22339.46
1080,24576,22360.16
1081,24576,22380.86
1082,24572,22401.57
1083,24568,22422.27
1084,24564,22442.98
1085,24564,22463.68
1086,24564,22484.38
1087,24556,22505.09
1088,24560,22525.79
1089,24564,22546.49
1090,24564,22567.20
1091,24572,22587.90
1092,24576,22608.61
1093,24584,22629.31
1094,24588,22650.01
1095,24600,22670.72
1096,24608,22691.42
1097,24616,22712.13
1098,24620,22732.83
1099,24628,22753.53
1100,24632,22774.24
1101,24640,22794.94
1102,24644,22815.64
1103,24652,22836.35
1104,24656,22857.05
1105,24664,22877.76
1106,24668,22898.46
1107,24680,22919.16
1108,24692,22939.87
1109,24696,22960.57
1110,24704,22981.28
1111,24708,23001.98
1112,24720,23022.68
1113,24724,23043.39
1114,24732,23064.09
1115,24736,23084.79
1116,24740,23105.50
1117,24732,23126.20
1118,24716,23146.91
1119,24696,23167.61
1120,24672,23188.31
1121,24652,23209.02
1122,24636,23229.72
1123,24628,23250.43
1124,24620,23271.13
1125,24620,23291.83
1126,24620,23312.54
1127,24616,23333.24
1128,24620,23353.95
1129,24624,23374.65
1130,24620,23395.35
1131,24620,23416.06
1132,24620,23436.76
1133,24616,23457.46
1134,24612,23478.17
1135,24608,23498.87
1136,24612,23519.58
1137,24612,23540.28
1138,24616,23560.98
1139,24620,23581.69
1140,24624,23602.39
1141,24632,23623.10
1142,24636,23643.80
1143,24648,23664.50
1144,24652,23685.21
1145,24656,23705.91
1146,24664,23726.61
1147,24672,23747.32
1148,24676,23768.02
1149,24684,23788.73
1150,24688,23809.43
1151,24696,23830.13
1152,24696,23850.84
1153,24704,23871.54
1154,24708,23892.25
1155,24716,23912.95
1156,24724,23933.65
1157,24732,23954.36
1158,24736,23975.06
1159,24748,23995.76
1160,24756,24016.47
1161,24760,24037.17
1162,24768,24057.88
1163,24772,24078.58
1164,24764,24099.28
1165,24752,24119.99
1166,24736,24140.69
1167,24716,24161.40
1168,24696,24182.10
1169,24688,24202.80
1170,24680,24223.51
1171,24680,24244.21
1172,24684,24264.91
1173,24684,24285.62
1174,24688,24306.32
1175,24688,24327.03
1176,24696,24347.73
1177,24700,24368.43
1178,24700,24389.14
1179,24700,24409.84
1180,24696,24430.55
1181,24692,24451.25
1182,24692,24471.95
1183,24688,24492.66
1184,24692,24513.36
1185,24696,24534.06
1186,24700,24554.77
1187,24708,24575.47
1188,24712,24596.18
1189,24716,24616.88
1190,24720,24637.58
1191,24724,24658.29
1192,24728,24678.99
1193,24732,24699.70
1194,24736,24720.40
1195,24744,24741.10
1196,24752,24761.81
1197,24752,24782.51
1198,24760,24803.21
1199,24768,24823.92
1200,24772,24844.62
1201,24776,24865.33
1202,24784,24886.03
1203,24788,24906.73
1204,24796,24927.44
1205,24804,24948.14
1206,24804,24968.85
1207,24796,24989.55
1208,24780,25010.25
1209,24760,25030.96
1210,24740,25051.66
1211,24728,25072.36
1212,24720,25093.07
1213,24720,25113.77
1214,24720,25134.48
1215,24716,25155.18
1216,24720,25175.88
1217,24724,25196.59
1218,24728,25217.29
1219,24732,25238.00
1220,24732,25258.70
1221,24728,25279.40
1222,24724,25300.11
1223,24716,25320.81
1224,24716,25341.51
1225,24716,25362.22
1226,24716,25382.92
1227,24720,25403.63
1228,24720,25424.33
1229,24724,25445.03
1230,24728,25465.74
1231,24732,25486.44
1232,24732,25507.15
1233,24740,25527.85
1234,24740,25548.55
1235,24744,25569.26
1236,24748,25589.96
1237,24756,25610.66
1238,24760,25631.37
1239,24764,25652.07
1240,24768,25672.78
1241,24768,25693.48
1242,24768,25714.18
1243,24776,25734.89
1244,24780,25755.59
1245,24788,25776.30
1246,24780,25797.00
1247,24764,25817.70
1248,24740,25838.41
1249,24708,25859.11
1250,24688,25879.81
1251,24672,25900.52
1252,24660,25921.22
1253,24656,25941.93
1254,24652,25962.63
1255,24652,25983.33
1256,24652,26004.04
1257,24652,26024.74
1258,24660,26045.45
1259,24656,26066.15
1260,24652,26086.85
1261,24648,26107.56
1262,24644,26128.26
1263,24640,26148.97
1264,24636,26169.67
1265,24636,26190.37
1266,24632,26211.08
1267,24636,26231.78
1268,24644,26252.48
1269,24644,26273.19
1270,24648,26293.89
1271,24652,26314.60
1272,24652,26335.30
1273,24656,26356.00
1274,24656,26376.71
1275,24664,26397.41
1276,24672,26418.12
1277,24676,26438.82
1278,24680,26459.52
1279,24684,26480.23
1280,24688,26500.93
1281,24692,26521.63
1282,24696,26542.34
1283,24708,26563.04
1284,24712,26583.75
1285,24716,26604.45
1286,24708,26625.15
1287,24684,26645.86
1288,24656,26666.56
1289,24620,26687.27
1290,24588,26707.97
1291,24564,26728.67
1292,24548,26749.38
1293,24536,26770.08
1294,24532,26790.78
1295,24524,26811.49
1296,24520,26832.19
1297,24512,26852.90
1298,24508,26873.60
1299,24504,26894.30
1300,24496,26915.01
1301,24496,26935.71
1302,24492,26956.42
1303,24488,26977.12
1304,24480,26997.82
1305,24476,27018.53
1306,24472,27039.23
1307,24472,27059.93
1308,24476,27080.64
1309,24480,27101.34
1310,24476,27122.05
1311,24480,27142.75
1312,24484,27163.45
1313,24484,27184.16
1314,24492,27204.86
1315,24500,27225.57
1316,24504,27246.27
1317,24512,27266.97
1318,24512,27287.68
1319,24520,27308.38
1320,24524,27329.08
1321,24528,27349.79
1322,24536,27370.49
1323,24548,27391.20
1324,24560,27411.90
1325,24564,27432.60
1326,24576,27453.31
1327,24584,27474.01
1328,24584,27494.72
1329,24576,27515.42
1330,24544,27536.12
1331,24508,27556.83
1332,24472,27577.53
1333,24440,27598.23
1334,24416,27618.94
1335,24404,27639.64
1336,24392,27660.35
1337,24380,27681.05
1338,24376,27701.75
1339,24368,27722.46
1340,24356,27743.16
1341,24356,27763.87
1342,24356,27784.57
1343,24356,27805.27
1344,24352,27825.98
1345,24344,27846.68
1346,24336,27867.38
1347,24332,27888.09
1348,24324,27908.79
1349,24320,27929.50
1350,24324,27950.20
1351,24324,27970.90
1352,24328,27991.61
1353,24336,28012.31
1354,24340,28033.02
1355,24348,28053.72
1356,24356,28074.42
1357,24364,28095.13
1358,24368,28115.83
1359,24376,28136.53
1360,24380,28157.24
1361,24392,28177.94
1362,24396,28198.65
1363,24408,28219.35
1364,24416,28240.05
1365,24424,28260.76
1366,24432,28281.46
1367,24444,28302.17
1368,24452,28322.87
1369,24468,28343.57
1370,24476,28364.28
1371,24488,28384.98
1372,24496,28405.68
1373,24496,28426.39
1374,24480,28447.09
1375,24448,28467.80
1376,24408,28488.50
1377,24376,28509.20
1378,24344,28529.91
1379,24328,28550.61
1380,24316,28571.32
1381,24312,28592.02
1382,24304,28612.72
1383,24296,28633.43
1384,24292,28654.13
1385,24288,28674.84
1386,24284,28695.54
1387,24280,28716.24
1388,24272,28736.95
1389,24268,28757.65
1390,24264,28778.35
1391,24260,28799.06
1392,24256,28819.76
1393,24260,28840.47
1394,24260,28861.17
1395,24264,28881.87
1396,24268,28902.58
1397,24276,28923.28
1398,24280,28943.99
1399,24292,28964.69
1400,24300,28985.39
1401,24308,29006.10
1402,24320,29026.80
1403,24328,29047.50
1404,24336,29068.21
1405,24352,29088.91
1406,24360,29109.62
1407,24368,29130.32
1408,24376,29151.02
1409,24384,29171.73
1410,24400,29192.43
1411,24412,29213.14
1412,24424,29233.84
1413,24432,29254.54
1414,24448,29275.25
1415,24452,29295.95
1416,24464,29316.65
1417,24476,29337.36
1418,24476,29358.06
1419,24460,29378.77
1420,24428,29399.47
1421,24388,29420.17
1422,24352,29440.88
1423,24324,29461.58
1424,24304,29482.29
1425,24288,29502.99
1426,24280,29523.69
1427,24268,29544.40
1428,24264,29565.10
1429,24260,29585.80
1430,24256,29606.51
1431,24260,29627.21
1432,24260,29647.92
1433,24260,29668.62
1434,24256,29689.32
1435,24248,29710.03
1436,24244,29730.73
1437,24244,29751.44
1438,24240,29772.14
1439,24248,29792.84
1440,24256,29813.55
1441,24264,29834.25
1442,24272,29854.95
1443,24280,29875.66
1444,24292,29896.36
1445,24304,29917.07
1446,24312,29937.77
1447,24324,29958.47
1448,24336,29979.18
1449,24348,29999.88
1450,24360,30020.59
1451,24372,30041.29
1452,24384,30061.99
1453,24392,30082.70
1454,24404,30103.40
1455,24416,30124.10
1456,24424,30144.81
1457,24440,30165.51
1458,24452,30186.22
1459,24468,30206.92
1460,24480,30227.62
1461,24492,30248.33
1462,24492,30269.03
1463,24476,30289.74
1464,24452,30310.44
1465,24412,30331.14
1466,24372,30351.85
1467,24344,30372.55
1468,24328,30393.25
1469,24316,30413.96
1470,24316,30434.66
1471,24312,30455.37
1472,24312,30476.07
1473,24312,30496.77
1474,24316,30517.48
1475,24316,30538.18
1476,24316,30558.89
1477,24316,30579.59
1478,24312,30600.29
1479,24312,30621.00
1480,24312,30641.70
1481,24308,30662.40
1482,24312,30683.11
1483,24312,30703.81
1484,24324,30724.52
1485,24328,30745.22
1486,24340,30765.92
1487,24348,30786.63
1488,24356,30807.33
1489,24368,30828.04
1490,24384,30848.74
1491,24396,30869.44
1492,24404,30890.15
1493,24416,30910.85
1494,24420,30931.55
1495,24428,30952.26
1496,24440,30972.96
1497,24448,30993.67
1498,24460,31014.37
1499,24472,31035.07
1500,24480,31055.78
1501,24476,31076.48
1502,24460,31097.19
1503,24432,31117.89
1504,24404,31138.59
1505,24376,31159.30
1506,24352,31180.00
1507,24340,31200.70
1508,24336,31221.41
1509,24336,31242.11
1510,24340,31262.82
1511,24344,31283.52
1512,24352,31304.22
1513,24360,31324.93
1514,24364,31345.63
1515,24364,31366.34
1516,24360,31387.04
1517,24356,31407.74
1518,24352,31428.45
1519,24352,31449.15
1520,24356,31469.86
1521,24356,31490.56
1522,24360,31511.26
1523,24368,31531.97
1524,24380,31552.67
1525,24392,31573.37
1526,24400,31594.08
1527,24412,31614.78
1528,24424,31635.49
1529,24436,31656.19
1530,24448,31676.89
1531,24460,31697.60
1532,24468,31718.30
1533,24476,31739.01
1534,24484,31759.71
1535,24476,31780.41
1536,24456,31801.12
1537,24428,31821.82
1538,24400,31842.52
1539,24372,31863.23
1540,24360,31883.93
1541,24348,31904.64
1542,24340,31925.34
1543,24340,31946.04
1544,24344,31966.75
1545,24344,31987.45
1546,24356,32008.16
1547,24364,32028.86
1548,24356,32049.56
1549,24356,32070.27
1550,24352,32090.97
1551,24344,32111.67
1552,24340,32132.38
1553,24336,32153.08
1554,24328,32173.79
1555,24328,32194.49
1556,24336,32215.19
1557,24340,32235.90
1558,24352,32256.60
1559,24360,32277.31
1560,24368,32298.01
1561,24380,32318.71
1562,24392,32339.42
1563,24404,32360.12
1564,24412,32380.82
1565,24420,32401.53
1566,24424,32422.23
1567,24408,32442.94
1568,24380,32463.64
1569,24344,32484.34
1570,24312,32505.05
1571,24280,32525.75
1572,24260,32546.46
1573,24248,32567.16
1574,24244,32587.86
1575,24240,32608.57
1576,24240,32629.27
1577,24248,32649.97
1578,24248,32670.68
1579,24256,32691.38
1580,24260,32712.09
1581,24256,32732.79
1582,24248,32753.49
1583,24236,32774.20
1584,24228,32794.90
1585,24220,32815.61
1586,24220,32836.31
1587,24216,32857.01
1588,24224,32877.72
1589,24228,32898.42
1590,24240,32919.12
1591,24252,32939.83
1592,24260,32960.53
1593,24272,32981.24
1594,24272,33001.94
1595,24280,33022.64
1596,24288,33043.35
1597,24288,33064.05
1598,24272,33084.76
1599,24240,33105.46
1600,24200,33126.16
1601,24164,33146.87
1602,24140,33167.57
1603,24120,33188.27
1604,24112,33208.98
1605,24104,33229.68
1606,24108,33250.39
1607,24104,33271.09
1608,24108,33291.79
1609,24112,33312.50
1610,24120,33333.20
1611,24120,33353.91
1612,24124,33374.61
1613,24120,33395.31
1614,24116,33416.02
1615,24116,33436.72
1616,24112,33457.42
1617,24116,33478.13
1618,24120,33498.83
1619,24128,33519.54
1620,24136,33540.24
1621,24144,33560.94
1622,24156,33581.65
1623,24164,33602.35
1624,24172,33623.06
1625,24184,33643.76
1626,24192,33664.46
1627,24200,33685.17
1628,24212,33705.87
1629,24216,33726.57
1630,24200,33747.28
1631,24168,33767.98
1632,24128,33788.69
1633,24092,33809.39
1634,24060,33830.09
1635,24044,33850.80
1636,24032,33871.50
1637,24028,33892.21
1638,24024,33912.91
1639,24020,33933.61
1640,24020,33954.32
1641,24020,33975.02
1642,24024,33995.72
1643,24028,34016.43
1644,24032,34037.13
1645,24036,34057.84
1646,24036,34078.54
1647,24036,34099.24
1648,24040,34119.95
1649,24044,34140.65
1650,24052,34161.36
1651,24060,34182.06
1652,24072,34202.76
1653,24080,34223.47
1654,24096,34244.17
1655,24108,34264.88
1656,24124,34285.58
1657,24136,34306.28
1658,24152,34326.99
1659,24164,34347.69
1660,24172,34368.39
1661,24188,34389.10
1662,24200,34409.80
1663,24212,34430.51
1664,24220,34451.21
1665,24232,34471.91
1666,24240,34492.62
1667,24256,34513.32
1668,24268,34534.03
1669,24280,34554.73
1670,24292,34575.43
1671,24288,34596.14
1672,24268,34616.84
1673,24232,34637.54
1674,24192,34658.25
1675,24160,34678.95
1676,24132,34699.66
1677,24120,34720.36
1678,24112,34741.06
1679,24100,34761.77
1680,24100,34782.47
1681,24092,34803.18
1682,24088,34823.88
1683,24088,34844.58
1684,24088,34865.29
1685,24092,34885.99
1686,24096,34906.69
1687,24096,34927.40
1688,24096,34948.10
1689,24096,34968.81
1690,24100,34989.51
1691,24104,35010.21
1692,24108,35030.92
1693,24120,35051.62
1694,24128,35072.33
1695,24136,35093.03
1696,24152,35113.73
1697,24160,35134.44
1698,24176,35155.14
1699,24184,35175.84
1700,24196,35196.55
1701,24208,35217.25
1702,24216,35237.96
1703,24228,35258.66
1704,24240,35279.36
1705,24248,35300.07
1706,24260,35320.77
1707,24268,35341.48
1708,24280,35362.18
1709,24292,35382.88
1710,24304,35403.59
1711,24316,35424.29
1712,24332,35444.99
1713,24344,35465.70
1714,24356,35486.40
1715,24368,35507.11
1716,24380,35527.81
1717,24384,35548.51
1718,24376,35569.22
1719,24352,35589.92
1720,24320,35610.63
1721,24288,35631.33
1722,24260,35652.03
1723,24244,35672.74
1724,24232,35693.44
1725,24232,35714.14
1726,24228,35734.85
1727,24220,35755.55
1728,24220,35776.26
1729,24220,35796.96
1730,24224,35817.66
1731,24228,35838.37
1732,24236,35859.07
1733,24236,35879.78
1734,24236,35900.48
1735,24232,35921.18
1736,24232,35941.89
1737,24240,35962.59
1738,24244,35983.29
1739,24252,36004.00
1740,24264,36024.70
1741,24276,36045.41
1742,24284,36066.11
1743,24292,36086.81
1744,24300,36107.52
1745,24312,36128.22
1746,24320,36148.93
1747,24328,36169.63
1748,24336,36190.33
1749,24348,36211.04
1750,24360,36231.74
1751,24372,36252.44
1752,24384,36273.15
1753,24392,36293.85
1754,24404,36314.56
1755,24412,36335.26
1756,24424,36355.96
1757,24436,36376.67
1758,24448,36397.37
1759,24464,36418.08
1760,24476,36438.78
1761,24492,36459.48
1762,24508,36480.19
1763,24516,36500.89
1764,24516,36521.59
1765,24504,36542.30
1766,24484,36563.00
1767,24456,36583.71
1768,24432,36604.41
1769,24420,36625.11
1770,24408,36645.82
1771,24408,36666.52
1772,24404,36687.23
1773,24408,36707.93
1774,24400,36728.63
1775,24400,36749.34
1776,24404,36770.04
1777,24408,36790.75
1778,24416,36811.45
1779,24420,36832.15
1780,24416,36852.86
1781,24420,36873.56
1782,24420,36894.26
1783,24424,36914.97
1784,24424,36935.67
1785,24432,36956.38
1786,24436,36977.08
1787,24440,36997.78
1788,24448,37018.49
1789,24464,37039.19
1790,24472,37059.90
1791,24484,37080.60
1792,24500,37101.30
1793,24508,37122.01
1794,24516,37142.71
1795,24528,37163.41
1796,24540,37184.12
1797,24548,37204.82
1798,24556,37225.53
1799,24564,37246.23
1800,24576,37266.93
1801,24592,37287.64
1802,24600,37308.34
1803,24612,37329.05
1804,24624,37349.75
1805,24640,37370.45
1806,24648,37391.16
1807,24660,37411.86
1808,24676,37432.56
1809,24688,37453.27
1810,24700,37473.97
1811,24700,37494.68
1812,24688,37515.38
1813,24672,37536.08
1814,24648,37556.79
1815,24624,37577.49
1816,24616,37598.20
1817,24608,37618.90
1818,24612,37639.60
1819,24612,37660.31
1820,24612,37681.01
1821,24616,37701.71
1822,24620,37722.42
1823,24616,37743.12
1824,24624,37763.83
1825,24624,37784.53
1826,24624,37805.23
1827,24624,37825.94
1828,24620,37846.64
1829,24616,37867.35
1830,24620,37888.05
1831,24624,37908.75
1832,24624,37929.46
1833,24632,37950.16
1834,24636,37970.86
1835,24640,37991.57
1836,24652,38012.27
1837,24660,38032.98
1838,24668,38053.68
1839,24680,38074.38
1840,24688,38095.09
1841,24696,38115.79
1842,24708,38136.50
1843,24716,38157.20
1844,24728,38177.90
1845,24732,38198.61
1846,24744,38219.31
1847,24752,38240.01
1848,24760,38260.72
1849,24764,38281.42
1850,24776,38302.13
1851,24784,38322.83
1852,24796,38343.53
1853,24792,38364.24
1854,24784,38384.94
1855,24768,38405.65
1856,24748,38426.35
1857,24728,38447.05
1858,24720,38467.76
1859,24708,38488.46
1860,24704,38509.16
1861,24708,38529.87
1862,24712,38550.57
1863,24712,38571.28
1864,24716,38591.98
1865,24720,38612.68
1866,24724,38633.39
1867,24728,38654.09
1868,24724,38674.80
1869,24720,38695.50
1870,24720,38716.20
1871,24712,38736.91
1872,24716,38757.61
1873,24716,38778.31
1874,24724,38799.02
1875,24728,38819.72
1876,24732,38840.43
1877,24740,38861.13
1878,24744,38881.83
1879,24752,38902.54
1880,24760,38923.24
1881,24764,38943.95
1882,24780,38964.65
1883,24784,38985.35
1884,24792,39006.06
1885,24800,39026.76
1886,24812,39047.46
1887,24820,39068.17
1888,24828,39088.87
1889,24832,39109.58
1890,24828,39130.28
1891,24820,39150.98
1892,24800,39171.69
1893,24780,39192.39
1894,24764,39213.10
1895,24752,39233.80
1896,24744,39254.50
1897,24744,39275.21
1898,24744,39295.91
1899,24744,39316.61
1900,24752,39337.32
1901,24756,39358.02
1902,24760,39378.73
1903,24768,39399.43
1904,24764,39420.13
1905,24764,39440.84
1906,24764,39461.54
1907,24760,39482.25
1908,24756,39502.95
1909,24756,39523.65
1910,24752,39544.36
1911,24756,39565.06
1912,24760,39585.77
1913,24768,39606.47
1914,24772,39627.17
1915,24784,39647.88
1916,24792,39668.58
1917,24792,39689.28
1918,24804,39709.99
1919,24808,39730.69
1920,24820,39751.40
1921,24820,39772.10
1922,24832,39792.80
1923,24828,39813.51
1924,24820,39834.21
1925,24800,39854.92
1926,24772,39875.62
1927,24748,39896.32
1928,24728,39917.03
1929,24716,39937.73
1930,24704,39958.43
1931,24700,39979.14
1932,24700,39999.84
1933,24704,40020.55
1934,24712,40041.25
1935,24712,40061.95
1936,24720,40082.66
1937,24720,40103.36
1938,24724,40124.07
1939,24716,40144.77
1940,24708,40165.47
1941,24704,40186.18
1942,24700,40206.88
1943,24704,40227.58
1944,24704,40248.29
1945,24708,40268.99
1946,24716,40289.70
1947,24720,40310.40
1948,24724,40331.10
1949,24728,40351.81
1950,24736,40372.51
1951,24736,40393.22
1952,24740,40413.92
1953,24748,40434.62
1954,24752,40455.33
1955,24748,40476.03
1956,24740,40496.73
1957,24712,40517.44
1958,24676,40538.14
1959,24640,40558.85
1960,24608,40579.55
1961,24580,40600.25
1962,24568,40620.96
1963,24556,40641.66
1964,24552,40662.37
1965,24552,40683.07
1966,24548,40703.77
1967,24556,40724.48
1968,24556,40745.18
1969,24552,40765.88
1970,24556,40786.59
1971,24552,40807.29
1972,24544,40828.00
1973,24536,40848.70
1974,24532,40869.40
1975,24532,40890.11
1976,24536,40910.81
1977,24540,40931.52
1978,24548,40952.22
1979,24552,40972.92
1980,24556,40993.63
1981,24568,41014.33
1982,24572,41035.03
1983,24580,41055.74
1984,24588,41076.44
1985,24596,41097.15
1986,24604,41117.85
1987,24616,41138.55
1988,24616,41159.26
1989,24612,41179.96
1990,24588,41200.67
1991,24548,41221.37
1992,24508,41242.07
1993,24468,41262.78
1994,24440,41283.48
1995,24420,41304.18
1996,24408,41324.89
1997,24400,41345.59
1998,24396,41366.30
1999,24392,41387.00
2000,24388,41407.70
2001,24392,41428.41
2002,24388,41449.11
2003,24388,41469.82
2004,24388,41490.52
2005,24384,41511.22
2006,24380,41531.93
2007,24376,41552.63
2008,24376,41573.33
2009,24376,41594.04
2010,24380,41614.74
2011,24388,41635.45
2012,24396,41656.15
2013,24404,41676.85
2014,24416,41697.56
2015,24420,41718.26
2016,24440,41738.97
2017,24448,41759.67
2018,24460,41780.37
2019,24472,41801.08
2020,24484,41821.78
2021,24492,41842.48
2022,24500,41863.19
2023,24512,41883.89
2024,24528,41904.60
2025,24540,41925.30
2026,24548,41946.00
2027,24560,41966.71
2028,24572,41987.41
2029,24584,42008.12
2030,24588,42028.82
2031,24580,42049.52
2032,24552,42070.23
2033,24516,42090.93
2034,24476,42111.63
2035,24432,42132.34
2036,24412,42153.04
2037,24392,42173.75
2038,24388,42194.45
2039,24376,42215.15
2040,24372,42235.86
2041,24364,42256.56
2042,24360,42277.27
2043,24356,42297.97
2044,24356,42318.67
2045,24360,42339.38
2046,24364,42360.08
2047,24360,42380.79
2048,24364,42401.49
2049,24360,42422.19
2050,24360,42442.90
2051,24364,42463.60
2052,24368,42484.30
2053,24376,42505.01
2054,24380,42525.71
2055,24392,42546.42
2056,24404,42567.12
2057,24416,42587.82
2058,24428,42608.53
2059,24436,42629.23
2060,24448,42649.94
2061,24456,42670.64
2062,24464,42691.34
2063,24476,42712.05
2064,24480,42732.75
2065,24496,42753.45
2066,24504,42774.16
2067,24516,42794.86
2068,24528,42815.57
2069,24540,42836.27
2070,24548,42856.97
2071,24560,42877.68
2072,24572,42898.38
2073,24580,42919.09
2074,24588,42939.79
2075,24596,42960.49
2076,24584,42981.20
2077,24564,43001.90
2078,24528,43022.60
2079,24488,43043.31
2080,24448,43064.01
2081,24420,43084.72
2082,24400,43105.42
2083,24392,43126.12
2084,24380,43146.83
2085,24380,43167.53
2086,24372,43188.24
2087,24372,43208.94
2088,24372,43229.64
2089,24376,43250.35
2090,24376,43271.05
2091,24376,43291.75
2092,24376,43312.46
2093,24376,43333.16
2094,24376,43353.87
2095,24372,43374.57
2096,24372,43395.27
2097,24376,43415.98
2098,24384,43436.68
2099,24392,43457.39
2100,24404,43478.09
2101,24412,43498.79
2102,24424,43519.50
2103,24428,43540.20
2104,24440,43560.90
2105,24452,43581.61
2106,24464,43602.31
2107,24476,43623.02
2108,24488,43643.72
2109,24496,43664.42
2110,24504,43685.13
2111,24516,43705.83
2112,24528,43726.54
2113,24532,43747.24
2114,24540,43767.94
2115,24548,43788.65
2116,24556,43809.35
2117,24568,43830.05
2118,24576,43850.76
2119,24588,43871.46
2120,24592,43892.17
2121,24580,43912.87
2122,24548,43933.57
2123,24504,43954.28
2124,24468,43974.98
2125,24436,43995.69
2126,24412,44016.39
2127,24400,44037.09
2128,24392,44057.80
2129,24384,44078.50
2130,24384,44099.20
2131,24380,44119.91
2132,24380,44140.61
2133,24384,44161.32
2134,24384,44182.02
2135,24388,44202.72
2136,24384,44223.43
2137,24384,44244.13
2138,24380,44264.84
2139,24388,44285.54
2140,24384,44306.24
2141,24388,44326.95
2142,24392,44347.65
2143,24400,44368.35
2144,24408,44389.06
2145,24420,44409.76
2146,24428,44430.47
2147,24436,44451.17
2148,24448,44471.87
2149,24460,44492.58
2150,24468,44513.28
2151,24484,44533.99
2152,24492,44554.69
2153,24500,44575.39
2154,24508,44596.10
2155,24516,44616.80
2156,24520,44637.50
2157,24532,44658.21
2158,24536,44678.91
2159,24544,44699.62
2160,24556,44720.32
2161,24564,44741.02
2162,24576,44761.73
2163,24588,44782.43
2164,24584,44803.14
2165,24568,44823.84
2166,24532,44844.54
2167,24488,44865.25
2168,24452,44885.95
2169,24420,44906.65
2170,24396,44927.36
2171,24388,44948.06
2172,24380,44968.77
2173,24376,44989.47
2174,24376,45010.17
2175,24376,45030.88
2176,24376,45051.58
2177,24384,45072.29
2178,24384,45092.99
2179,24384,45113.69
2180,24384,45134.40
2181,24380,45155.10
2182,24380,45175.81
2183,24380,45196.51
2184,24380,45217.21
2185,24388,45237.92
2186,24392,45258.62
2187,24392,45279.32
2188,24400,45300.03
2189,24408,45320.73
2190,24420,45341.44
2191,24432,45362.14
2192,24436,45382.84
2193,24452,45403.55
2194,24464,45424.25
2195,24472,45444.96
2196,24480,45465.66
2197,24488,45486.36
2198,24496,45507.07
2199,24504,45527.77
2200,24516,45548.47
2201,24520,45569.18
2202,24528,45589.88
2203,24536,45610.59
2204,24548,45631.29
2205,24560,45651.99
2206,24568,45672.70
2207,24560,45693.40
2208,24536,45714.11
2209,24500,45734.81
2210,24464,45755.51
2211,24428,45776.22
2212,24404,45796.92
2213,24392,45817.62
2214,24380,45838.33
2215,24380,45859.03
2216,24376,45879.74
2217,24380,45900.44
2218,24384,45921.14
2219,24392,45941.85
2220,24396,45962.55
2221,24400,45983.26
2222,24400,46003.96
2223,24396,46024.66
2224,24392,46045.37
2225,24392,46066.07
2226,24388,46086.77
2227,24388,46107.48
2228,24392,46128.18
2229,24400,46148.89
2230,24408,46169.59
2231,24416,46190.29
2232,24432,46211.00
2233,24440,46231.70
2234,24448,46252.41
2235,24460,46273.11
2236,24468,46293.81
2237,24476,46314.52
2238,24484,46335.22
2239,24496,46355.92
2240,24504,46376.63
2241,24512,46397.33
2242,24524,46418.04
2243,24532,46438.74
2244,24524,46459.44
2245,24500,46480.15
2246,24468,46500.85
2247,24432,46521.56
2248,24404,46542.26
2249,24384,46562.96
2250,24376,46583.67
2251,24372,46604.37
2252,24372,46625.07
2253,24380,46645.78
2254,24388,46666.48
2255,24396,46687.19
2256,24404,46707.89
2257,24412,46728.59
2258,24416,46749.30
2259,24416,46770.00
2260,24416,46790.71
2261,24416,46811.41
2262,24416,46832.11
2263,24416,46852.82
2264,24416,46873.52
2265,24420,46894.22
2266,24432,46914.93
2267,24440,46935.63
2268,24448,46956.34
2269,24460,46977.04
2270,24476,46997.74
2271,24484,47018.45
2272,24496,47039.15
2273,24504,47059.86
2274,24516,47080.56
2275,24520,47101.26
2276,24520,47121.97
2277,24504,47142.67
2278,24472,47163.37
2279,24440,47184.08
2280,24404,47204.78
2281,24376,47225.49
2282,24356,47246.19
2283,24344,47266.89
2284,24336,47287.60
2285,24336,47308.30
2286,24340,47329.01
2287,24352,47349.71
2288,24360,47370.41
2289,24368,47391.12
2290,24380,47411.82
2291,24376,47432.52
2292,24372,47453.23
2293,24368,47473.93
2294,24364,47494.64
2295,24360,47515.34
2296,24360,47536.04
2297,24368,47556.75
2298,24380,47577.45
2299,24388,47598.16
2300,24400,47618.86
2301,24412,47639.56
2302,24420,47660.27
2303,24428,47680.97
2304,24440,47701.68
2305,24452,47722.38
2306,24464,47743.08
2307,24464,47763.79
2308,24448,47784.49
2309,24416,47805.19
2310,24376,47825.90
2311,24332,47846.60
2312,24296,47867.31
2313,24272,47888.01
2314,24260,47908.71
2315,24252,47929.42
2316,24248,47950.12
2317,24252,47970.83
2318,24256,47991.53
2319,24264,48012.23
2320,24272,48032.94
2321,24272,48053.64
2322,24268,48074.34
2323,24260,48095.05
2324,24256,48115.75
2325,24248,48136.46
2326,24248,48157.16
2327,24244,48177.86
2328,24252,48198.57
2329,24256,48219.27
2330,24264,48239.98
2331,24272,48260.68
2332,24280,48281.38
2333,24296,48302.09
2334,24304,48322.79
2335,24316,48343.49
2336,24324,48364.20
2337,24336,48384.90
2338,24328,48405.61
2339,24304,48426.31
2340,24264,48447.01
2341,24212,48467.72
2342,24164,48488.42
2343,24128,48509.13
2344,24104,48529.83
2345,24088,48550.53
2346,24084,48571.24
2347,24076,48591.94
2348,24076,48612.64
2349,24076,48633.35
2350,24080,48654.05
2351,24080,48674.76
2352,24080,48695.46
2353,24076,48716.16
2354,24068,48736.87
2355,24060,48757.57
2356,24052,48778.28
2357,24052,48798.98
2358,24052,48819.68
2359,24056,48840.39
2360,24064,48861.09
2361,24072,48881.79
2362,24080,48902.50
2363,24092,48923.20
2364,24100,48943.91
2365,24112,48964.61
2366,24124,48985.31
2367,24136,49006.02
2368,24148,49026.72
2369,24160,49047.43
2370,24168,49068.13
2371,24180,49088.83
2372,24188,49109.54
2373,24172,49130.24
2374,24132,49150.94
2375,24080,49171.65
2376,24028,49192.35
2377,23980,49213.06
2378,23948,49233.76
2379,23924,49254.46
2380,23912,49275.17
2381,23896,49295.87
2382,23884,49316.58
2383,23880,49337.28
2384,23872,49357.98
2385,23872,49378.69
2386,23876,49399.39
2387,23876,49420.09
2388,23876,49440.80
2389,23876,49461.50
2390,23868,49482.21
2391,23864,49502.91
2392,23860,49523.61
2393,23864,49544.32
2394,23864,49565.02
2395,23872,49585.73
2396,23880,49606.43
2397,23892,49627.13
2398,23900,49647.84
2399,23916,49668.54
2400,23924,49689.24
2401,23936,49709.95
2402,23944,49730.65
2403,23964,49751.36
2404,23968,49772.06
2405,23984,49792.76
2406,23996,49813.47
2407,24008,49834.17
2408,24020,49854.88
2409,24036,49875.58
2410,24044,49896.28
2411,24060,49916.99
2412,24072,49937.69
2413,24088,49958.39
2414,24104,49979.10
2415,24112,49999.80
2416,24104,50020.51
2417,24076,50041.21
2418,24032,50061.91
2419,23976,50082.62
2420,23928,50103.32
2421,23888,50124.03
2422,23860,50144.73
2423,23840,50165.43
2424,23828,50186.14
2425,23824,50206.84
2426,23820,50227.54
2427,23812,50248.25
2428,23812,50268.95
2429,23816,50289.66
2430,23820,50310.36
2431,23820,50331.06
2432,23816,50351.77
2433,23816,50372.47
2434,23808,50393.18
2435,23804,50413.88
2436,23804,50434.58
2437,23812,50455.29
2438,23816,50475.99
2439,23824,50496.70
2440,23836,50517.40
2441,23852,50538.10
2442,23856,50558.81
2443,23872,50579.51
2444,23884,50600.21
2445,23900,50620.92
2446,23908,50641.62
2447,23924,50662.33
2448,23936,50683.03
2449,23952,50703.73
2450,23964,50724.44
2451,23980,50745.14
2452,23988,50765.85
2453,24000,50786.55
2454,24016,50807.25
2455,24032,50827.96
2456,24044,50848.66
2457,24060,50869.36
2458,24076,50890.07
2459,24092,50910.77
2460,24100,50931.48
2461,24100,50952.18
2462,24072,50972.88
2463,24024,50993.59
2464,23968,51014.29
2465,23916,51035.00
2466,23880,51055.70
2467,23852,51076.40
2468,23836,51097.11
2469,23828,51117.81
2470,23820,51138.51
2471,23816,51159.22
2472,23816,51179.92
2473,23816,51200.63
2474,23812,51221.33
2475,23816,51242.03
2476,23816,51262.74
2477,23816,51283.44
2478,23812,51304.15
2479,23812,51324.85
2480,23812,51345.55
2481,23812,51366.26
2482,23816,51386.96
2483,23820,51407.66
2484,23832,51428.37
2485,23844,51449.07
2486,23856,51469.78
2487,23868,51490.48
2488,23884,51511.18
2489,23900,51531.89
2490,23912,51552.59
2491,23928,51573.30
2492,23940,51594.00
2493,23952,51614.70
2494,23968,51635.41
2495,23984,51656.11
2496,23996,51676.81
2497,24008,51697.52
2498,24024,51718.22
2499,24040,51738.93
2500,24056,51759.63
2501,24068,51780.33
2502,24088,51801.04
2503,24100,51821.74
2504,24116,51842.45
2505,24132,51863.15
2506,24144,51883.85
2507,24132,51904.56
2508,24100,51925.26
2509,24052,51945.96
2510,24000,51966.67
2511,23948,51987.37
2512,23916,52008.08
2513,23896,52028.78
2514,23880,52049.48
2515,23872,52070.19
2516,23872,52090.89
2517,23868,52111.60
2518,23868,52132.30
2519,23880,52153.00
2520,23884,52173.71
2521,23892,52194.41
2522,23888,52215.11
2523,23888,52235.82
2524,23888,52256.52
2525,23884,52277.23
2526,23884,52297.93
2527,23888,52318.63
2528,23896,52339.34
2529,23904,52360.04
2530,23916,52380.75
2531,23928,52401.45
2532,23944,52422.15
2533,23960,52442.86
2534,23976,52463.56
2535,23992,52484.26
2536,24008,52504.97
2537,24024,52525.67
2538,24032,52546.38
2539,24052,52567.08
2540,24064,52587.78
2541,24080,52608.49
2542,24092,52629.19
2543,24108,52649.90
2544,24120,52670.60
2545,24136,52691.30
2546,24148,52712.01
2547,24164,52732.71
2548,24180,52753.41
2549,24196,52774.12
2550,24208,52794.82
2551,24208,52815.53
2552,24192,52836.23
2553,24152,52856.93
2554,24096,52877.64
2555,24044,52898.34
2556,24008,52919.05
2557,23984,52939.75
2558,23972,52960.45
2559,23968,52981.16
2560,23968,53001.86
2561,23972,53022.56
2562,23976,53043.27
2563,23988,53063.97
2564,24000,53084.68
2565,24004,53105.38
2566,24004,53126.08
2567,24008,53146.79
2568,24000,53167.49
2569,24000,53188.20
2570,23996,53208.90
2571,23996,53229.60
2572,24000,53250.31
2573,24008,53271.01
2574,24020,53291.72
2575,24032,53312.42
2576,24044,53333.12
2577,24060,53353.83
2578,24076,53374.53
2579,24088,53395.23
2580,24108,53415.94
2581,24120,53436.64
2582,24132,53457.35
2583,24144,53478.05
2584,24156,53498.75
2585,24168,53519.46
2586,24184,53540.16
2587,24192,53560.87
2588,24208,53581.57
2589,24216,53602.27
2590,24212,53622.98
2591,24188,53643.68
2592,24152,53664.38
2593,24104,53685.09
2594,24060,53705.79
2595,24028,53726.50
2596,24008,53747.20
2597,24000,53767.90
2598,24000,53788.61
2599,24008,53809.31
2600,24016,53830.02
2601,24032,53850.72
2602,24044,53871.42
2603,24052,53892.13
2604,24060,53912.83
2605,24060,53933.53
2606,24056,53954.24
2607,24048,53974.94
2608,24048,53995.65
2609,24048,54016.35
2610,24052,54037.05
2611,24060,54057.76
2612,24076,54078.46
2613,24088,54099.17
2614,24100,54119.87
2615,24116,54140.57
2616,24128,54161.28
2617,24144,54181.98
2618,24160,54202.68
2619,24176,54223.39
2620,24192,54244.09
2621,24208,54264.80
2622,24224,54285.50
2623,24232,54306.20
2624,24216,54326.91
2625,24188,54347.61
2626,24148,54368.32
2627,24100,54389.02
2628,24060,54409.72
2629,24028,54430.43
2630,24016,54451.13
2631,24008,54471.83
2632,24008,54492.54
2633,24008,54513.24
2634,24020,54533.95
2635,24028,54554.65
2636,24036,54575.35
2637,24044,54596.06
2638,24044,54616.76
2639,24044,54637.47
2640,24040,54658.17
2641,24036,54678.87
2642,24032,54699.58
2643,24032,54720.28
2644,24032,54740.98
2645,24040,54761.69
2646,24044,54782.39
2647,24056,54803.10
2648,24068,54823.80
2649,24084,54844.50
2650,24096,54865.21
2651,24112,54885.91
2652,24128,54906.62
2653,24140,54927.32
2654,24152,54948.02
2655,24156,54968.73
2656,24140,54989.43
2657,24100,55010.13
2658,24048,55030.84
2659,24000,55051.54
2660,23956,55072.25
2661,23928,55092.95
2662,23908,55113.65
2663,23900,55134.36
2664,23896,55155.06
2665,23896,55175.77
2666,23904,55196.47
2667,23916,55217.17
2668,23924,55237.88
2669,23932,55258.58
2670,23936,55279.28
2671,23936,55299.99
2672,23928,55320.69
2673,23920,55341.40
2674,23916,55362.10
2675,23912,55382.80
2676,23920,55403.51
2677,23924,55424.21
2678,23928,55444.92
2679,23940,55465.62
2680,23952,55486.32
2681,23964,55507.03
2682,23980,55527.73
2683,23992,55548.43
2684,24008,55569.14
2685,24016,55589.84
2686,24020,55610.55
2687,24004,55631.25
2688,23960,55651.95
2689,23904,55672.66
2690,23848,55693.36
2691,23800,55714.07
2692,23764,55734.77
2693,23748,55755.47
2694,23732,55776.18
2695,23728,55796.88
2696,23728,55817.58
2697,23732,55838.29
2698,23732,55858.99
2699,23744,55879.70
2700,23752,55900.40
2701,23756,55921.10
2702,23756,55941.81
2703,23748,55962.51
2704,23744,55983.22
2705,23736,56003.92
2706,23732,56024.62
2707,23736,56045.33
2708,23744,56066.03
2709,23756,56086.74
2710,23772,56107.44
2711,23784,56128.14
2712,23800,56148.85
2713,23816,56169.55
2714,23832,56190.25
2715,23844,56210.96
2716,23860,56231.66
2717,23868,56252.37
2718,23884,56273.07
2719,23892,56293.77
2720,23892,56314.48
2721,23864,56335.18
2722,23812,56355.89
2723,23748,56376.59
2724,23684,56397.29
2725,23628,56418.00
2726,23588,56438.70
2727,23568,56459.40
2728,23560,56480.11
2729,23552,56500.81
2730,23552,56521.52
2731,23548,56542.22
2732,23552,56562.92
2733,23560,56583.63
2734,23568,56604.33
2735,23576,56625.04
2736,23580,56645.74
2737,23584,56666.44
2738,23584,56687.15
2739,23584,56707.85
2740,23588,56728.55
2741,23596,56749.26
2742,23604,56769.96
2743,23620,56790.67
2744,23632,56811.37
2745,23648,56832.07
2746,23668,56852.78
2747,23684,56873.48
2748,23700,56894.19
2749,23720,56914.89
2750,23736,56935.59
2751,23756,56956.30
2752,23768,56977.00
2753,23780,56997.70
2754,23796,57018.41
2755,23812,57039.11
2756,23820,57059.82
2757,23836,57080.52
2758,23844,57101.22
2759,23860,57121.93
2760,23876,57142.63
2761,23896,57163.34
2762,23908,57184.04
2763,23924,57204.74
2764,23928,57225.45
2765,23908,57246.15
2766,23852,57266.85
2767,23788,57287.56
2768,23724,57308.26
2769,23668,57328.97
2770,23628,57349.67
2771,23608,57370.37
2772,23592,57391.08
2773,23592,57411.78
2774,23584,57432.49
2775,23580,57453.19
2776,23584,57473.89
2777,23588,57494.60
2778,23592,57515.30
2779,23600,57536.00
2780,23604,57556.71
2781,23612,57577.41
2782,23608,57598.12
2783,23608,57618.82
2784,23612,57639.52
2785,23616,57660.23
2786,23628,57680.93
2787,23636,57701.64
2788,23652,57722.34
2789,23664,57743.04
2790,23680,57763.75
2791,23696,57784.45
2792,23712,57805.15
2793,23728,57825.86
2794,23748,57846.56
2795,23764,57867.27
2796,23776,57887.97
2797,23792,57908.67
2798,23800,57929.38
2799,23812,57950.08
2800,23824,57970.79
2801,23836,57991.49
2802,23852,58012.19
2803,23868,58032.90
2804,23880,58053.60
2805,23900,58074.30
2806,23916,58095.01
2807,23928,58115.71
2808,23924,58136.42
2809,23904,58157.12
2810,23848,58177.82
2811,23788,58198.53
2812,23728,58219.23
2813,23676,58239.94
2814,23648,58260.64
2815,23624,58281.34
2816,23616,58302.05
2817,23604,58322.75
2818,23604,58343.45
2819,23604,58364.16
2820,23604,58384.86
2821,23612,58405.57
2822,23624,58426.27
2823,23632,58446.97
2824,23632,58467.68
2825,23636,58488.38
2826,23636,58509.09
2827,23632,58529.79
2828,23636,58550.49
2829,23644,58571.20
2830,23652,58591.90
2831,23664,58612.61
2832,23680,58633.31
2833,23692,58654.01
2834,23712,58674.72
2835,23724,58695.42
2836,23740,58716.12
2837,23752,58736.83
2838,23768,58757.53
2839,23780,58778.24
2840,23792,58798.94
2841,23804,58819.64
2842,23816,58840.35
2843,23832,58861.05
2844,23844,58881.76
2845,23860,58902.46
2846,23872,58923.16
2847,23888,58943.87
2848,23904,58964.57
2849,23920,58985.27
2850,23936,59005.98
2851,23944,59026.68
2852,23932,59047.39
2853,23896,59068.09
2854,23840,59088.79
2855,23780,59109.50
2856,23724,59130.20
2857,23688,59150.91
2858,23660,59171.61
2859,23648,59192.31
2860,23644,59213.02
2861,23648,59233.72
2862,23648,59254.42
2863,23652,59275.13
2864,23668,59295.83
2865,23676,59316.54
2866,23688,59337.24
2867,23688,59357.94
2868,23692,59378.65
2869,23688,59399.35
2870,23688,59420.06
2871,23688,59440.76
2872,23696,59461.46
2873,23704,59482.17
2874,23716,59502.87
2875,23732,59523.57
2876,23744,59544.28
2877,23760,59564.98
2878,23776,59585.69
2879,23792,59606.39
2880,23804,59627.09
2881,23816,59647.80
2882,23832,59668.50
2883,23848,59689.21
2884,23860,59709.91
2885,23872,59730.61
2886,23892,59751.32
2887,23904,59772.02
2888,23920,59792.72
2889,23936,59813.43
2890,23948,59834.13
2891,23956,59854.84
2892,23976,59875.54
2893,23992,59896.24
2894,24000,59916.95
2895,23988,59937.65
2896,23952,59958.36
2897,23892,59979.06
2898,23836,59999.76
2899,23784,60020.47
2900,23748,60041.17
2901,23724,60061.87
2902,23716,60082.58
2903,23712,60103.28
2904,23712,60123.99
2905,23720,60144.69
2906,23732,60165.39
2907,23744,60186.10
2908,23756,60206.80
2909,23764,60227.51
2910,23764,60248.21
2911,23760,60268.91
2912,23756,60289.62
2913,23756,60310.32
2914,23756,60331.02
2915,23756,60351.73
2916,23768,60372.43
2917,23776,60393.14
2918,23792,60413.84
2919,23804,60434.54
2920,23820,60455.25
2921,23840,60475.95
2922,23848,60496.66
2923,23860,60517.36
2924,23876,60538.06
2925,23888,60558.77
2926,23904,60579.47
2927,23920,60600.17
2928,23932,60620.88
2929,23948,60641.58
2930,23960,60662.29
2931,23972,60682.99
2932,23988,60703.69
2933,23992,60724.40
2934,23976,60745.10
2935,23944,60765.81
2936,23896,60786.51
2937,23848,60807.21
2938,23808,60827.92
2939,23776,60848.62
2940,23764,60869.32
2941,23760,60890.03
2942,23760,60910.73
2943,23772,60931.44
2944,23784,60952.14
2945,23800,60972.84
2946,23816,60993.55
2947,23828,61014.25
2948,23832,61034.96
2949,23836,61055.66
2950,23836,61076.36
2951,23828,61097.07
2952,23824,61117.77
2953,23828,61138.47
2954,23832,61159.18
2955,23840,61179.88
2956,23856,61200.59
2957,23868,61221.29
2958,23888,61241.99
2959,23904,61262.70
2960,23920,61283.40
2961,23936,61304.11
2962,23952,61324.81
2963,23964,61345.51
2964,23972,61366.22
2965,23988,61386.92
2966,24000,61407.63
2967,24016,61428.33
2968,24016,61449.03
2969,24000,61469.74
2970,23964,61490.44
2971,23916,61511.14
2972,23864,61531.85
2973,23824,61552.55
2974,23800,61573.26
2975,23788,61593.96
2976,23784,61614.66
2977,23788,61635.37
2978,23796,61656.07
2979,23808,61676.78
2980,23832,61697.48
2981,23848,61718.18
2982,23856,61738.89
2983,23864,61759.59
2984,23864,61780.29
2985,23860,61801.00
2986,23852,61821.70
2987,23856,61842.41
2988,23856,61863.11
2989,23864,61883.81
2990,23876,61904.52
2991,23888,61925.22
2992,23908,61945.93
2993,23920,61966.63
2994,23936,61987.33
2995,23948,62008.04
2996,23964,62028.74
2997,23980,62049.44
2998,23996,62070.15
2999,24016,62090.85
