Sample_Index,IR_Value,Timestamp_ms
0,25936,0.00
1,25948,20.06
2,25952,40.11
3,25956,60.17
4,25948,80.22
5,25944,100.28
6,25928,120.34
7,25920,140.39
8,25916,160.45
9,25912,180.50
10,25912,200.56
11,25916,220.61
12,25920,240.67
13,25924,260.73
14,25928,280.78
15,25928,300.84
16,25936,320.89
17,25940,340.95
18,25944,361.01
19,25944,381.06
20,25944,401.12
21,25944,421.17
22,25944,441.23
23,25948,461.28
24,25948,481.34
25,25960,501.40
26,25968,521.45
27,25968,541.51
28,25976,561.56
29,25980,581.62
30,25984,601.68
31,25992,621.73
32,25996,641.79
33,26000,661.84
34,26004,681.90
35,26008,701.96
36,26012,722.01
37,26016,742.07
38,26024,762.12
39,26028,782.18
40,26032,802.23
41,26040,822.29
42,26040,842.35
43,26048,862.40
44,26044,882.46
45,26032,902.51
46,26020,922.57
47,26012,942.63
48,26004,962.68
49,26000,982.74
50,25996,1002.79
51,26000,1022.85
52,26008,1042.90
53,26012,1062.96
54,26012,1083.02
55,26016,1103.07
56,26016,1123.13
57,26020,1143.18
58,26024,1163.24
59,26024,1183.30
60,26028,1203.35
61,26028,1223.41
62,26028,1243.46
63,26032,1263.52
64,26028,1283.58
65,26032,1303.63
66,26036,1323.69
67,26040,1343.74
68,26044,1363.80
69,26052,1383.85
70,26052,1403.91
71,26060,1423.97
72,26064,1444.02
73,26068,1464.08
74,26068,1484.13
75,26076,1504.19
76,26080,1524.25
77,26084,1544.30
78,26092,1564.36
79,26096,1584.41
80,26100,1604.47
81,26100,1624.52
82,26104,1644.58
83,26108,1664.64
84,26112,1684.69
85,26120,1704.75
86,26120,1724.80
87,26104,1744.86
88,26092,1764.92
89,26084,1784.97
90,26076,1805.03
91,26076,1825.08
92,26076,1845.14
93,26080,1865.20
94,26080,1885.25
95,26088,1905.31
96,26092,1925.36
97,26096,1945.42
98,26100,1965.47
99,26100,1985.53
100,26104,2005.59
101,26100,2025.64
102,26104,2045.70
103,26104,2065.75
104,26104,2085.81
105,26108,2105.87
106,26112,2125.92
107,26112,2145.98
108,26116,2166.03
109,26120,2186.09
110,26124,2206.14
111,26124,2226.20
112,26128,2246.26
113,26132,2266.31
114,26140,2286.37
115,26140,2306.42
116,26144,2326.48
117,26148,2346.54
118,26152,2366.59
119,26156,2386.65
120,26156,2406.70
121,26164,2426.76
122,26168,2446.82
123,26172,2466.87
124,26176,2486.93
125,26180,2506.98
126,26184,2527.04
127,26184,2547.09
128,26180,2567.15
129,26164,2587.21
130,26148,2607.26
131,26136,2627.32
132,26124,2647.37
133,26120,2667.43
134,26124,2687.49
135,26124,2707.54
136,26128,2727.60
137,26128,2747.65
138,26132,2767.71
139,26136,2787.77
140,26140,2807.82
141,26140,2827.88
142,26136,2847.93
143,26136,2867.99
144,26136,2888.04
145,26132,2908.10
146,26128,2928.16
147,26132,2948.21
148,26132,2968.27
149,26132,2988.32
150,26136,3008.38
151,26136,3028.44
152,26140,3048.49
153,26144,3068.55
154,26148,3088.60
155,26152,3108.66
156,26168,3128.71
157,26180,3148.77
158,26188,3168.83
159,26188,3188.88
160,26188,3208.94
161,26184,3228.99
162,26184,3249.05
163,26184,3269.11
164,26188,3289.16
165,26192,3309.22
166,26188,3329.27
167,26180,3349.33
168,26164,3369.39
169,26144,3389.44
170,26124,3409.50
171,26108,3429.55
172,26096,3449.61
173,26088,3469.66
174,26080,3489.72
175,26076,3509.78
176,26076,3529.83
177,26080,3549.89
178,26080,3569.94
179,26080,3590.00
180,26076,3610.06
181,26072,3630.11
182,26068,3650.17
183,26068,3670.22
184,26064,3690.28
185,26060,3710.33
186,26056,3730.39
187,26056,3750.45
188,26056,3770.50
189,26056,3790.56
190,26052,3810.61
191,26052,3830.67
192,26052,3850.73
193,26052,3870.78
194,26056,3890.84
195,26056,3910.89
196,26060,3930.95
197,26056,3951.01
198,26056,3971.06
199,26056,3991.12
200,26056,4011.17
201,26052,4031.23
202,26044,4051.28
203,26024,4071.34
204,26004,4091.40
205,25984,4111.45
206,25964,4131.51
207,25952,4151.56
208,25936,4171.62
209,25932,4191.68
210,25924,4211.73
211,25920,4231.79
212,25916,4251.84
213,25908,4271.90
214,25896,4291.95
215,25864,4312.01
216,25780,4332.07
217,25684,4352.12
218,25596,4372.18
219,25524,4392.23
220,25432,4412.29
221,25316,4432.35
222,25228,4452.40
223,25156,4472.46
224,25120,4492.51
225,25104,4512.57
226,25096,4532.63
227,25080,4552.68
228,25072,4572.74
229,25072,4592.79
230,25076,4612.85
231,25084,4632.90
232,25084,4652.96
233,25080,4673.02
234,25076,4693.07
235,25060,4713.13
236,25032,4733.18
237,25004,4753.24
238,24980,4773.30
239,24960,4793.35
240,24944,4813.41
241,24936,4833.46
242,24932,4853.52
243,24924,4873.57
244,24920,4893.63
245,24928,4913.69
246,24932,4933.74
247,24932,4953.80
248,24940,4973.85
249,24940,4993.91
250,24940,5013.97
251,24932,5034.02
252,24924,5054.08
253,24920,5074.13
254,24920,5094.19
255,24920,5114.25
256,24920,5134.30
257,24916,5154.36
258,24920,5174.41
259,24924,5194.47
260,24928,5214.52
261,24932,5234.58
262,24936,5254.64
263,24936,5274.69
264,24940,5294.75
265,24944,5314.80
266,24952,5334.86
267,24956,5354.92
268,24948,5374.97
269,24928,5395.03
270,24900,5415.08
271,24868,5435.14
272,24836,5455.19
273,24816,5475.25
274,24800,5495.31
275,24792,5515.36
276,24788,5535.42
277,24784,5555.47
278,24788,5575.53
279,24792,5595.59
280,24792,5615.64
281,24788,5635.70
282,24784,5655.75
283,24784,5675.81
284,24776,5695.87
285,24776,5715.92
286,24768,5735.98
287,24768,5756.03
288,24768,5776.09
289,24772,5796.14
290,24772,5816.20
291,24776,5836.26
292,24776,5856.31
293,24780,5876.37
294,24784,5896.42
295,24788,5916.48
296,24796,5936.54
297,24800,5956.59
298,24804,5976.65
299,24808,5996.70
300,24816,6016.76
301,24812,6036.81
302,24800,6056.87
303,24772,6076.93
304,24744,6096.98
305,24712,6117.04
306,24696,6137.09
307,24684,6157.15
308,24676,6177.21
309,24676,6197.26
310,24672,6217.32
311,24672,6237.37
312,24676,6257.43
313,24680,6277.49
314,24680,6297.54
315,24672,6317.60
316,24672,6337.65
317,24672,6357.71
318,24672,6377.76
319,24672,6397.82
320,24672,6417.88
321,24672,6437.93
322,24680,6457.99
323,24684,6478.04
324,24692,6498.10
325,24700,6518.16
326,24708,6538.21
327,24720,6558.27
328,24724,6578.32
329,24728,6598.38
330,24736,6618.43
331,24744,6638.49
332,24748,6658.55
333,24752,6678.60
334,24748,6698.66
335,24732,6718.71
336,24708,6738.77
337,24684,6758.83
338,24660,6778.88
339,24644,6798.94
340,24632,6818.99
341,24636,6839.05
342,24640,6859.11
343,24644,6879.16
344,24648,6899.22
345,24648,6919.27
346,24656,6939.33
347,24660,6959.38
348,24660,6979.44
349,24656,6999.50
350,24652,7019.55
351,24652,7039.61
352,24656,7059.66
353,24656,7079.72
354,24664,7099.78
355,24672,7119.83
356,24680,7139.89
357,24696,7159.94
358,24708,7180.00
359,24720,7200.06
360,24732,7220.11
361,24740,7240.17
362,24752,7260.22
363,24768,7280.28
364,24780,7300.33
365,24792,7320.39
366,24800,7340.45
367,24792,7360.50
368,24776,7380.56
369,24752,7400.61
370,24724,7420.67
371,24700,7440.73
372,24684,7460.78
373,24676,7480.84
374,24676,7500.89
375,24676,7520.95
376,24672,7541.00
377,24672,7561.06
378,24680,7581.12
379,24688,7601.17
380,24688,7621.23
381,24700,7641.28
382,24704,7661.34
383,24712,7681.40
384,24716,7701.45
385,24720,7721.51
386,24724,7741.56
387,24736,7761.62
388,24744,7781.68
389,24752,7801.73
390,24760,7821.79
391,24768,7841.84
392,24780,7861.90
393,24780,7881.95
394,24780,7902.01
395,24780,7922.07
396,24784,7942.12
397,24792,7962.18
398,24800,7982.23
399,24804,8002.29
400,24812,8022.35
401,24808,8042.40
402,24792,8062.46
403,24768,8082.51
404,24740,8102.57
405,24724,8122.62
406,24700,8142.68
407,24684,8162.74
408,24668,8182.79
409,24660,8202.85
410,24652,8222.90
411,24648,8242.96
412,24644,8263.02
413,24648,8283.07
414,24648,8303.13
415,24652,8323.18
416,24656,8343.24
417,24656,8363.30
418,24648,8383.35
419,24652,8403.41
420,24648,8423.46
421,24644,8443.52
422,24648,8463.57
423,24648,8483.63
424,24648,8503.69
425,24656,8523.74
426,24660,8543.80
427,24668,8563.85
428,24676,8583.91
429,24680,8603.97
430,24684,8624.02
431,24692,8644.08
432,24700,8664.13
433,24712,8684.19
434,24720,8704.24
435,24720,8724.30
436,24712,8744.36
437,24696,8764.41
438,24664,8784.47
439,24632,8804.52
440,24600,8824.58
441,24580,8844.64
442,24568,8864.69
443,24564,8884.75
444,24564,8904.80
445,24564,8924.86
446,24568,8944.92
447,24572,8964.97
448,24580,8985.03
449,24588,9005.08
450,24592,9025.14
451,24596,9045.19
452,24592,9065.25
453,24584,9085.31
454,24580,9105.36
455,24576,9125.42
456,24576,9145.47
457,24580,9165.53
458,24584,9185.59
459,24588,9205.64
460,24596,9225.70
461,24604,9245.75
462,24608,9265.81
463,24616,9285.86
464,24624,9305.92
465,24628,9325.98
466,24632,9346.03
467,24632,9366.09
468,24628,9386.14
469,24616,9406.20
470,24588,9426.26
471,24568,9446.31
472,24536,9466.37
473,24516,9486.42
474,24496,9506.48
475,24484,9526.54
476,24472,9546.59
477,24468,9566.65
478,24468,9586.70
479,24468,9606.76
480,24468,9626.81
481,24468,9646.87
482,24472,9666.93
483,24476,9686.98
484,24476,9707.04
485,24480,9727.09
486,24480,9747.15
487,24488,9767.21
488,24492,9787.26
489,24496,9807.32
490,24500,9827.37
491,24504,9847.43
492,24512,9867.48
493,24520,9887.54
494,24528,9907.60
495,24540,9927.65
496,24548,9947.71
497,24560,9967.76
498,24572,9987.82
499,24580,10007.88
500,24596,10027.93
501,24604,10047.99
502,24612,10068.04
503,24624,10088.10
504,24624,10108.16
505,24616,10128.21
506,24596,10148.27
507,24572,10168.32
508,24552,10188.38
509,24536,10208.43
510,24532,10228.49
511,24532,10248.55
512,24532,10268.60
513,24532,10288.66
514,24528,10308.71
515,24532,10328.77
516,24540,10348.83
517,24548,10368.88
518,24552,10388.94
519,24556,10408.99
520,24560,10429.05
521,24564,10449.10
522,24568,10469.16
523,24568,10489.22
524,24576,10509.27
525,24584,10529.33
526,24596,10549.38
527,24608,10569.44
528,24620,10589.50
529,24628,10609.55
530,24640,10629.61
531,24652,10649.66
532,24660,10669.72
533,24668,10689.78
534,24676,10709.83
535,24688,10729.89
536,24696,10749.94
537,24712,10770.00
538,24720,10790.05
539,24732,10810.11
540,24744,10830.17
541,24756,10850.22
542,24764,10870.28
543,24760,10890.33
544,24752,10910.39
545,24736,10930.45
546,24724,10950.50
547,24712,10970.56
548,24708,10990.61
549,24712,11010.67
550,24716,11030.72
551,24724,11050.78
552,24728,11070.84
553,24732,11090.89
554,24736,11110.95
555,24740,11131.00
556,24748,11151.06
557,24752,11171.12
558,24756,11191.17
559,24760,11211.23
560,24760,11231.28
561,24760,11251.34
562,24768,11271.40
563,24776,11291.45
564,24780,11311.51
565,24788,11331.56
566,24796,11351.62
567,24804,11371.67
568,24808,11391.73
569,24812,11411.79
570,24820,11431.84
571,24832,11451.90
572,24836,11471.95
573,24832,11492.01
574,24836,11512.07
575,24844,11532.12
576,24860,11552.18
577,24872,11572.23
578,24876,11592.29
579,24880,11612.35
580,24888,11632.40
581,24892,11652.46
582,24896,11672.51
583,24900,11692.57
584,24900,11712.62
585,24892,11732.68
586,24880,11752.74
587,24868,11772.79
588,24856,11792.85
589,24852,11812.90
590,24852,11832.96
591,24856,11853.02
592,24860,11873.07
593,24864,11893.13
594,24868,11913.18
595,24876,11933.24
596,24880,11953.29
597,24884,11973.35
598,24892,11993.41
599,24896,12013.46
600,24904,12033.52
601,24908,12053.57
602,24912,12073.63
603,24920,12093.69
604,24924,12113.74
605,24932,12133.80
606,24944,12153.85
607,24952,12173.91
608,24960,12193.97
609,24972,12214.02
610,24980,12234.08
611,24992,12254.13
612,25000,12274.19
613,25004,12294.24
614,25012,12314.30
615,25016,12334.36
616,25024,12354.41
617,25032,12374.47
618,25036,12394.52
619,25044,12414.58
620,25052,12434.64
621,25060,12454.69
622,25068,12474.75
623,25076,12494.80
624,25080,12514.86
625,25084,12534.91
626,25084,12554.97
627,25072,12575.03
628,25060,12595.08
629,25048,12615.14
630,25044,12635.19
631,25044,12655.25
632,25044,12675.31
633,25048,12695.36
634,25052,12715.42
635,25060,12735.47
636,25064,12755.53
637,25068,12775.59
638,25068,12795.64
639,25072,12815.70
640,25076,12835.75
641,25080,12855.81
642,25084,12875.86
643,25088,12895.92
644,25084,12915.98
645,25084,12936.03
646,25088,12956.09
647,25092,12976.14
648,25096,12996.20
649,25100,13016.26
650,25108,13036.31
651,25116,13056.37
652,25120,13076.42
653,25124,13096.48
654,25128,13116.53
655,25132,13136.59
656,25136,13156.65
657,25144,13176.70
658,25144,13196.76
659,25148,13216.81
660,25156,13236.87
661,25160,13256.93
662,25168,13276.98
663,25172,13297.04
664,25176,13317.09
665,25180,13337.15
666,25184,13357.21
667,25192,13377.26
668,25188,13397.32
669,25180,13417.37
670,25168,13437.43
671,25156,13457.48
672,25148,13477.54
673,25144,13497.60
674,25144,13517.65
675,25144,13537.71
676,25148,13557.76
677,25152,13577.82
678,25152,13597.88
679,25156,13617.93
680,25160,13637.99
681,25164,13658.04
682,25168,13678.10
683,25172,13698.15
684,25172,13718.21
685,25168,13738.27
686,25172,13758.32
687,25172,13778.38
688,25168,13798.43
689,25176,13818.49
690,25184,13838.55
691,25188,13858.60
692,25196,13878.66
693,25204,13898.71
694,25208,13918.77
695,25216,13938.83
696,25216,13958.88
697,25216,13978.94
698,25224,13998.99
699,25232,14019.05
700,25236,14039.10
701,25240,14059.16
702,25252,14079.22
703,25260,14099.27
704,25268,14119.33
705,25276,14139.38
706,25284,14159.44
707,25292,14179.50
708,25296,14199.55
709,25300,14219.61
710,25300,14239.66
711,25292,14259.72
712,25280,14279.77
713,25268,14299.83
714,25256,14319.89
715,25252,14339.94
716,25256,14360.00
717,25252,14380.05
718,25260,14400.11
719,25260,14420.17
720,25264,14440.22
721,25264,14460.28
722,25268,14480.33
723,25272,14500.39
724,25280,14520.45
725,25280,14540.50
726,25280,14560.56
727,25276,14580.61
728,25272,14600.67
729,25276,14620.72
730,25276,14640.78
731,25276,14660.84
732,25280,14680.89
733,25284,14700.95
734,25288,14721.00
735,25288,14741.06
736,25292,14761.12
737,25296,14781.17
738,25296,14801.23
739,25300,14821.28
740,25304,14841.34
741,25312,14861.39
742,25312,14881.45
743,25320,14901.51
744,25324,14921.56
745,25332,14941.62
746,25332,14961.67
747,25336,14981.73
748,25332,15001.79
749,25320,15021.84
750,25304,15041.90
751,25288,15061.95
752,25280,15082.01
753,25272,15102.07
754,25264,15122.12
755,25264,15142.18
756,25264,15162.23
757,25264,15182.29
758,25264,15202.34
759,25264,15222.40
760,25260,15242.46
761,25264,15262.51
762,25268,15282.57
763,25268,15302.62
764,25268,15322.68
765,25268,15342.74
766,25268,15362.79
767,25268,15382.85
768,25264,15402.90
769,25264,15422.96
770,25272,15443.01
771,25276,15463.07
772,25276,15483.13
773,25280,15503.18
774,25284,15523.24
775,25292,15543.29
776,25292,15563.35
777,25292,15583.41
778,25288,15603.46
779,25292,15623.52
780,25296,15643.57
781,25292,15663.63
782,25280,15683.69
783,25264,15703.74
784,25252,15723.80
785,25232,15743.85
786,25212,15763.91
787,25200,15783.96
788,25192,15804.02
789,25188,15824.08
790,25188,15844.13
791,25184,15864.19
792,25184,15884.24
793,25184,15904.30
794,25180,15924.36
795,25180,15944.41
796,25176,15964.47
797,25172,15984.52
798,25164,16004.58
799,25160,16024.64
800,25156,16044.69
801,25152,16064.75
802,25152,16084.80
803,25148,16104.86
804,25148,16124.91
805,25148,16144.97
806,25152,16165.03
807,25148,16185.08
808,25148,16205.14
809,25148,16225.19
810,25148,16245.25
811,25148,16265.31
812,25152,16285.36
813,25152,16305.42
814,25148,16325.47
815,25132,16345.53
816,25108,16365.58
817,25080,16385.64
818,25056,16405.70
819,25036,16425.75
820,25016,16445.81
821,25008,16465.86
822,25000,16485.92
823,24996,16505.98
824,24996,16526.03
825,25000,16546.09
826,24996,16566.14
827,24996,16586.20
828,24992,16606.26
829,24984,16626.31
830,24988,16646.37
831,24980,16666.42
832,24980,16686.48
833,24984,16706.53
834,24984,16726.59
835,24988,16746.65
836,24992,16766.70
837,24996,16786.76
838,24996,16806.81
839,25000,16826.87
840,24996,16846.93
841,25000,16866.98
842,25004,16887.04
843,25008,16907.09
844,25012,16927.15
845,25016,16947.20
846,25020,16967.26
847,25020,16987.32
848,25008,17007.37
849,24988,17027.43
850,24964,17047.48
851,24940,17067.54
852,24916,17087.60
853,24904,17107.65
854,24896,17127.71
855,24884,17147.76
856,24876,17167.82
857,24864,17187.88
858,24860,17207.93
859,24860,17227.99
860,24860,17248.04
861,24856,17268.10
862,24856,17288.15
863,24852,17308.21
864,24856,17328.27
865,24852,17348.32
866,24848,17368.38
867,24844,17388.43
868,24840,17408.49
869,24840,17428.55
870,24848,17448.60
871,24852,17468.66
872,24860,17488.71
873,24868,17508.77
874,24876,17528.82
875,24880,17548.88
876,24884,17568.94
877,24892,17588.99
878,24900,17609.05
879,24904,17629.10
880,24908,17649.16
881,24916,17669.22
882,24920,17689.27
883,24912,17709.33
884,24896,17729.38
885,24880,17749.44
886,24860,17769.50
887,24848,17789.55
888,24844,17809.61
889,24840,17829.66
890,24840,17849.72
891,24844,17869.77
892,24840,17889.83
893,24844,17909.89
894,24856,17929.94
895,24860,17950.00
896,24864,17970.05
897,24864,17990.11
898,24864,18010.17
899,24864,18030.22
900,24864,18050.28
901,24864,18070.33
902,24864,18090.39
903,24864,18110.44
904,24868,18130.50
905,24876,18150.56
906,24880,18170.61
907,24880,18190.67
908,24888,18210.72
909,24892,18230.78
910,24900,18250.84
911,24904,18270.89
912,24908,18290.95
913,24916,18311.00
914,24916,18331.06
915,24920,18351.12
916,24912,18371.17
917,24896,18391.23
918,24872,18411.28
919,24848,18431.34
920,24840,18451.39
921,24836,18471.45
922,24832,18491.51
923,24820,18511.56
924,24816,18531.62
925,24820,18551.67
926,24832,18571.73
927,24836,18591.79
928,24836,18611.84
929,24832,18631.90
930,24828,18651.95
931,24832,18672.01
932,24840,18692.06
933,24840,18712.12
934,24848,18732.18
935,24852,18752.23
936,24856,18772.29
937,24860,18792.34
938,24860,18812.40
939,24860,18832.46
940,24868,18852.51
941,24880,18872.57
942,24884,18892.62
943,24892,18912.68
944,24896,18932.74
945,24896,18952.79
946,24896,18972.85
947,24880,18992.90
948,24864,19012.96
949,24848,19033.01
950,24832,19053.07
951,24824,19073.13
952,24824,19093.18
953,24824,19113.24
954,24828,19133.29
955,24836,19153.35
956,24840,19173.41
957,24848,19193.46
958,24848,19213.52
959,24856,19233.57
960,24864,19253.63
961,24872,19273.68
962,24876,19293.74
963,24884,19313.80
964,24892,19333.85
965,24892,19353.91
966,24900,19373.96
967,24908,19394.02
968,24924,19414.08
969,24932,19434.13
970,24940,19454.19
971,24944,19474.24
972,24948,19494.30
973,24952,19514.36
974,24964,19534.41
975,24988,19554.47
976,25000,19574.52
977,24996,19594.58
978,24984,19614.63
979,24964,19634.69
980,24940,19654.75
981,24916,19674.80
982,24896,19694.86
983,24876,19714.91
984,24864,19734.97
985,24848,19755.03
986,24840,19775.08
987,24836,19795.14
988,24832,19815.19
989,24828,19835.25
990,24828,19855.30
991,24824,19875.36
992,24828,19895.42
993,24828,19915.47
994,24828,19935.53
995,24824,19955.58
996,24824,19975.64
997,24824,19995.70
998,24824,20015.75
999,24824,20035.81
1000,24828,20055.86
1001,24832,20075.92
1002,24836,20095.98
1003,24844,20116.03
1004,24852,20136.09
1005,24856,20156.14
1006,24868,20176.20
1007,24872,20196.25
1008,24880,20216.31
1009,24880,20236.37
1010,24872,20256.42
1011,24864,20276.48
1012,24844,20296.53
1013,24820,20316.59
1014,24796,20336.65
1015,24788,20356.70
1016,24780,20376.76
1017,24776,20396.81
1018,24776,20416.87
1019,24772,20436.93
1020,24768,20456.98
1021,24772,20477.04
1022,24768,20497.09
1023,24768,20517.15
1024,24772,20537.20
1025,24776,20557.26
1026,24776,20577.32
1027,24776,20597.37
1028,24776,20617.43
1029,24776,20637.48
1030,24784,20657.54
1031,24788,20677.60
1032,24792,20697.65
1033,24796,20717.71
1034,24804,20737.76
1035,24812,20757.82
1036,24820,20777.87
1037,24828,20797.93
1038,24832,20817.99
1039,24836,20838.04
1040,24844,20858.10
1041,24848,20878.15
1042,24856,20898.21
1043,24864,20918.27
1044,24872,20938.32
1045,24868,20958.38
1046,24856,20978.43
1047,24836,20998.49
1048,24812,21018.55
1049,24796,21038.60
1050,24780,21058.66
1051,24776,21078.71
1052,24776,21098.77
1053,24776,21118.82
1054,24780,21138.88
1055,24780,21158.94
1056,24784,21178.99
1057,24788,21199.05
1058,24792,21219.10
1059,24796,21239.16
1060,24796,21259.22
1061,24796,21279.27
1062,24792,21299.33
1063,24792,21319.38
1064,24796,21339.44
1065,24804,21359.49
1066,24808,21379.55
1067,24816,21399.61
1068,24824,21419.66
1069,24828,21439.72
1070,24828,21459.77
1071,24836,21479.83
1072,24844,21499.89
1073,24852,21519.94
1074,24860,21540.00
1075,24868,21560.05
1076,24872,21580.11
1077,24876,21600.17
1078,24880,21620.22
1079,24884,21640.28
1080,24884,21660.33
1081,24876,21680.39
1082,24856,21700.44
1083,24832,21720.50
1084,24812,21740.56
1085,24800,21760.61
1086,24792,21780.67
1087,24788,21800.72
1088,24788,21820.78
1089,24788,21840.84
1090,24784,21860.89
1091,24784,21880.95
1092,24784,21901.00
1093,24784,21921.06
1094,24788,21941.11
1095,24792,21961.17
1096,24792,21981.23
1097,24788,22001.28
1098,24788,22021.34
1099,24788,22041.39
1100,24784,22061.45
1101,24784,22081.51
1102,24792,22101.56
1103,24800,22121.62
1104,24804,22141.67
1105,24808,22161.73
1106,24816,22181.79
1107,24816,22201.84
1108,24824,22221.90
1109,24832,22241.95
1110,24840,22262.01
1111,24848,22282.06
1112,24860,22302.12
1113,24860,22322.18
1114,24848,22342.23
1115,24828,22362.29
1116,24812,22382.34
1117,24792,22402.40
1118,24780,22422.46
1119,24772,22442.51
1120,24768,22462.57
1121,24768,22482.62
1122,24768,22502.68
1123,24768,22522.73
1124,24768,22542.79
1125,24768,22562.85
1126,24768,22582.90
1127,24772,22602.96
1128,24776,22623.01
1129,24784,22643.07
1130,24792,22663.13
1131,24800,22683.18
1132,24804,22703.24
1133,24808,22723.29
1134,24820,22743.35
1135,24828,22763.41
1136,24832,22783.46
1137,24836,22803.52
1138,24840,22823.57
1139,24848,22843.63
1140,24856,22863.68
1141,24864,22883.74
1142,24872,22903.80
1143,24884,22923.85
1144,24888,22943.91
1145,24884,22963.96
1146,24872,22984.02
1147,24852,23004.08
1148,24824,23024.13
1149,24804,23044.19
1150,24784,23064.24
1151,24776,23084.30
1152,24772,23104.35
1153,24768,23124.41
1154,24772,23144.47
1155,24772,23164.52
1156,24776,23184.58
1157,24780,23204.63
1158,24784,23224.69
1159,24788,23244.75
1160,24792,23264.80
1161,24796,23284.86
1162,24800,23304.91
1163,24796,23324.97
1164,24800,23345.03
1165,24800,23365.08
1166,24808,23385.14
1167,24812,23405.19
1168,24820,23425.25
1169,24828,23445.30
1170,24836,23465.36
1171,24844,23485.42
1172,24852,23505.47
1173,24860,23525.53
1174,24864,23545.58
1175,24868,23565.64
1176,24876,23585.70
1177,24884,23605.75
1178,24880,23625.81
1179,24864,23645.86
1180,24848,23665.92
1181,24828,23685.97
1182,24808,23706.03
1183,24792,23726.09
1184,24776,23746.14
1185,24772,23766.20
1186,24772,23786.25
1187,24772,23806.31
1188,24780,23826.37
1189,24784,23846.42
1190,24788,23866.48
1191,24792,23886.53
1192,24796,23906.59
1193,24800,23926.65
1194,24800,23946.70
1195,24800,23966.76
1196,24800,23986.81
1197,24800,24006.87
1198,24804,24026.92
1199,24808,24046.98
1200,24816,24067.04
1201,24824,24087.09
1202,24828,24107.15
1203,24832,24127.20
1204,24836,24147.26
1205,24840,24167.32
1206,24852,24187.37
1207,24860,24207.43
1208,24868,24227.48
1209,24876,24247.54
1210,24884,24267.59
1211,24892,24287.65
1212,24900,24307.71
1213,24896,24327.76
1214,24884,24347.82
1215,24864,24367.87
1216,24832,24387.93
1217,24808,24407.99
1218,24788,24428.04
1219,24772,24448.10
1220,24764,24468.15
1221,24764,24488.21
1222,24764,24508.27
1223,24764,24528.32
1224,24764,24548.38
1225,24768,24568.43
1226,24772,24588.49
1227,24776,24608.54
1228,24780,24628.60
1229,24784,24648.66
1230,24784,24668.71
1231,24784,24688.77
1232,24784,24708.82
1233,24784,24728.88
1234,24784,24748.94
1235,24792,24768.99
1236,24792,24789.05
1237,24796,24809.10
1238,24804,24829.16
1239,24812,24849.22
1240,24820,24869.27
1241,24828,24889.33
1242,24836,24909.38
1243,24844,24929.44
1244,24852,24949.49
1245,24860,24969.55
1246,24872,24989.61
1247,24880,25009.66
1248,24888,25029.72
1249,24896,25049.77
1250,24900,25069.83
1251,24900,25089.89
1252,24884,25109.94
1253,24864,25130.00
1254,24832,25150.05
1255,24804,25170.11
1256,24780,25190.16
1257,24764,25210.22
1258,24756,25230.28
1259,24752,25250.33
1260,24748,25270.39
1261,24748,25290.44
1262,24752,25310.50
1263,24756,25330.56
1264,24760,25350.61
1265,24760,25370.67
1266,24764,25390.72
1267,24764,25410.78
1268,24764,25430.84
1269,24760,25450.89
1270,24760,25470.95
1271,24760,25491.00
1272,24760,25511.06
1273,24764,25531.11
1274,24772,25551.17
1275,24780,25571.23
1276,24788,25591.28
1277,24796,25611.34
1278,24804,25631.39
1279,24812,25651.45
1280,24816,25671.51
1281,24824,25691.56
1282,24836,25711.62
1283,24844,25731.67
1284,24848,25751.73
1285,24860,25771.78
1286,24868,25791.84
1287,24880,25811.90
1288,24888,25831.95
1289,24884,25852.01
1290,24868,25872.06
1291,24840,25892.12
1292,24808,25912.18
1293,24780,25932.23
1294,24752,25952.29
1295,24732,25972.34
1296,24720,25992.40
1297,24716,26012.46
1298,24716,26032.51
1299,24716,26052.57
1300,24720,26072.62
1301,24724,26092.68
1302,24732,26112.73
1303,24736,26132.79
1304,24736,26152.85
1305,24736,26172.90
1306,24736,26192.96
1307,24736,26213.01
1308,24736,26233.07
1309,24736,26253.13
1310,24736,26273.18
1311,24740,26293.24
1312,24744,26313.29
1313,24744,26333.35
1314,24752,26353.40
1315,24760,26373.46
1316,24764,26393.52
1317,24776,26413.57
1318,24780,26433.63
1319,24788,26453.68
1320,24792,26473.74
1321,24800,26493.80
1322,24808,26513.85
1323,24812,26533.91
1324,24816,26553.96
1325,24800,26574.02
1326,24780,26594.08
1327,24748,26614.13
1328,24712,26634.19
1329,24684,26654.24
1330,24660,26674.30
1331,24648,26694.35
1332,24640,26714.41
1333,24644,26734.47
1334,24648,26754.52
1335,24652,26774.58
1336,24656,26794.63
1337,24664,26814.69
1338,24668,26834.75
1339,24664,26854.80
1340,24664,26874.86
1341,24664,26894.91
1342,24660,26914.97
1343,24656,26935.02
1344,24656,26955.08
1345,24656,26975.14
1346,24656,26995.19
1347,24656,27015.25
1348,24660,27035.30
1349,24664,27055.36
1350,24668,27075.42
1351,24672,27095.47
1352,24676,27115.53
1353,24684,27135.58
1354,24692,27155.64
1355,24700,27175.70
1356,24708,27195.75
1357,24704,27215.81
1358,24688,27235.86
1359,24660,27255.92
1360,24620,27275.97
1361,24572,27296.03
1362,24532,27316.09
1363,24500,27336.14
1364,24480,27356.20
1365,24468,27376.25
1366,24464,27396.31
1367,24460,27416.37
1368,24460,27436.42
1369,24460,27456.48
1370,24468,27476.53
1371,24472,27496.59
1372,24476,27516.64
1373,24472,27536.70
1374,24472,27556.76
1375,24472,27576.81
1376,24472,27596.87
1377,24472,27616.92
1378,24468,27636.98
1379,24472,27657.04
1380,24476,27677.09
1381,24480,27697.15
1382,24488,27717.20
1383,24496,27737.26
1384,24508,27757.32
1385,24516,27777.37
1386,24524,27797.43
1387,24532,27817.48
1388,24540,27837.54
1389,24552,27857.59
1390,24560,27877.65
1391,24552,27897.71
1392,24528,27917.76
1393,24488,27937.82
1394,24440,27957.87
1395,24388,27977.93
1396,24352,27997.99
1397,24320,28018.04
1398,24304,28038.10
1399,24296,28058.15
1400,24292,28078.21
1401,24292,28098.26
1402,24296,28118.32
1403,24308,28138.38
1404,24312,28158.43
1405,24316,28178.49
1406,24320,28198.54
1407,24320,28218.60
1408,24320,28238.66
1409,24316,28258.71
1410,24320,28278.77
1411,24320,28298.82
1412,24324,28318.88
1413,24328,28338.94
1414,24340,28358.99
1415,24344,28379.05
1416,24352,28399.10
1417,24360,28419.16
1418,24372,28439.21
1419,24380,28459.27
1420,24396,28479.33
1421,24404,28499.38
1422,24416,28519.44
1423,24424,28539.49
1424,24424,28559.55
1425,24408,28579.61
1426,24364,28599.66
1427,24312,28619.72
1428,24252,28639.77
1429,24208,28659.83
1430,24176,28679.88
1431,24156,28699.94
1432,24148,28720.00
1433,24148,28740.05
1434,24152,28760.11
1435,24156,28780.16
1436,24160,28800.22
1437,24168,28820.28
1438,24176,28840.33
1439,24184,28860.39
1440,24184,28880.44
1441,24184,28900.50
1442,24184,28920.56
1443,24184,28940.61
1444,24188,28960.67
1445,24192,28980.72
1446,24196,29000.78
1447,24196,29020.83
1448,24204,29040.89
1449,24220,29060.95
1450,24228,29081.00
1451,24240,29101.06
1452,24252,29121.11
1453,24260,29141.17
1454,24272,29161.23
1455,24284,29181.28
1456,24296,29201.34
1457,24308,29221.39
1458,24320,29241.45
1459,24316,29261.50
1460,24292,29281.56
1461,24244,29301.62
1462,24184,29321.67
1463,24124,29341.73
1464,24076,29361.78
1465,24048,29381.84
1466,24036,29401.90
1467,24032,29421.95
1468,24036,29442.01
1469,24048,29462.06
1470,24056,29482.12
1471,24068,29502.18
1472,24076,29522.23
1473,24084,29542.29
1474,24088,29562.34
1475,24092,29582.40
1476,24088,29602.45
1477,24084,29622.51
1478,24080,29642.57
1479,24084,29662.62
1480,24084,29682.68
1481,24084,29702.73
1482,24088,29722.79
1483,24096,29742.85
1484,24104,29762.90
1485,24108,29782.96
1486,24120,29803.01
1487,24128,29823.07
1488,24136,29843.13
1489,24148,29863.18
1490,24152,29883.24
1491,24160,29903.29
1492,24168,29923.35
1493,24172,29943.40
1494,24184,29963.46
1495,24188,29983.52
1496,24180,30003.57
1497,24148,30023.63
1498,24096,30043.68
1499,24032,30063.74
1500,23968,30083.80
1501,23920,30103.85
1502,23892,30123.91
1503,23880,30143.96
1504,23876,30164.02
1505,23880,30184.07
1506,23888,30204.13
1507,23896,30224.19
1508,23908,30244.24
1509,23920,30264.30
1510,23932,30284.35
1511,23940,30304.41
1512,23940,30324.47
1513,23944,30344.52
1514,23948,30364.58
1515,23948,30384.63
1516,23956,30404.69
1517,23960,30424.75
1518,23968,30444.80
1519,23976,30464.86
1520,23988,30484.91
1521,24000,30504.97
1522,24012,30525.02
1523,24028,30545.08
1524,24040,30565.14
1525,24052,30585.19
1526,24072,30605.25
1527,24084,30625.30
1528,24092,30645.36
1529,24100,30665.42
1530,24108,30685.47
1531,24120,30705.53
1532,24124,30725.58
1533,24112,30745.64
1534,24080,30765.69
1535,24024,30785.75
1536,23960,30805.81
1537,23896,30825.86
1538,23852,30845.92
1539,23828,30865.97
1540,23816,30886.03
1541,23812,30906.09
1542,23808,30926.14
1543,23816,30946.20
1544,23824,30966.25
1545,23836,30986.31
1546,23848,31006.37
1547,23856,31026.42
1548,23864,31046.48
1549,23864,31066.53
1550,23864,31086.59
1551,23864,31106.64
1552,23860,31126.70
1553,23868,31146.76
1554,23876,31166.81
1555,23884,31186.87
1556,23896,31206.92
1557,23908,31226.98
1558,23920,31247.04
1559,23936,31267.09
1560,23944,31287.15
1561,23960,31307.20
1562,23972,31327.26
1563,23984,31347.31
1564,23996,31367.37
1565,24012,31387.43
1566,24024,31407.48
1567,24040,31427.54
1568,24044,31447.59
1569,24032,31467.65
1570,23992,31487.71
1571,23932,31507.76
1572,23864,31527.82
1573,23808,31547.87
1574,23780,31567.93
1575,23760,31587.99
1576,23756,31608.04
1577,23760,31628.10
1578,23768,31648.15
1579,23776,31668.21
1580,23788,31688.26
1581,23800,31708.32
1582,23816,31728.38
1583,23824,31748.43
1584,23828,31768.49
1585,23824,31788.54
1586,23828,31808.60
1587,23824,31828.66
1588,23824,31848.71
1589,23828,31868.77
1590,23832,31888.82
1591,23844,31908.88
1592,23852,31928.93
1593,23864,31948.99
1594,23876,31969.05
1595,23888,31989.10
1596,23900,32009.16
1597,23920,32029.21
1598,23932,32049.27
1599,23940,32069.33
1600,23952,32089.38
1601,23960,32109.44
1602,23972,32129.49
1603,23980,32149.55
1604,23992,32169.61
1605,24000,32189.66
1606,24000,32209.72
1607,23976,32229.77
1608,23924,32249.83
1609,23848,32269.88
1610,23780,32289.94
1611,23724,32310.00
1612,23688,32330.05
1613,23668,32350.11
1614,23664,32370.16
1615,23668,32390.22
1616,23672,32410.28
1617,23680,32430.33
1618,23688,32450.39
1619,23704,32470.44
1620,23712,32490.50
1621,23720,32510.55
1622,23724,32530.61
1623,23728,32550.67
1624,23732,32570.72
1625,23732,32590.78
1626,23732,32610.83
1627,23740,32630.89
1628,23752,32650.95
1629,23760,32671.00
1630,23772,32691.06
1631,23788,32711.11
1632,23808,32731.17
1633,23820,32751.23
1634,23840,32771.28
1635,23856,32791.34
1636,23868,32811.39
1637,23884,32831.45
1638,23896,32851.50
1639,23908,32871.56
1640,23920,32891.62
1641,23932,32911.67
1642,23944,32931.73
1643,23956,32951.78
1644,23968,32971.84
1645,23976,32991.90
1646,23980,33011.95
1647,23948,33032.01
1648,23892,33052.06
1649,23820,33072.12
1650,23744,33092.17
1651,23688,33112.23
1652,23656,33132.29
1653,23640,33152.34
1654,23640,33172.40
1655,23644,33192.45
1656,23648,33212.51
1657,23656,33232.57
1658,23668,33252.62
1659,23676,33272.68
1660,23684,33292.73
1661,23692,33312.79
1662,23696,33332.85
1663,23696,33352.90
1664,23696,33372.96
1665,23696,33393.01
1666,23692,33413.07
1667,23700,33433.12
1668,23708,33453.18
1669,23716,33473.24
1670,23728,33493.29
1671,23740,33513.35
1672,23756,33533.40
1673,23772,33553.46
1674,23784,33573.52
1675,23796,33593.57
1676,23808,33613.63
1677,23820,33633.68
1678,23832,33653.74
1679,23844,33673.79
1680,23856,33693.85
1681,23868,33713.91
1682,23884,33733.96
1683,23892,33754.02
1684,23904,33774.07
1685,23916,33794.13
1686,23924,33814.19
1687,23936,33834.24
1688,23932,33854.30
1689,23900,33874.35
1690,23840,33894.41
1691,23768,33914.47
1692,23696,33934.52
1693,23648,33954.58
1694,23620,33974.63
1695,23612,33994.69
1696,23612,34014.74
1697,23620,34034.80
1698,23632,34054.86
1699,23648,34074.91
1700,23664,34094.97
1701,23680,34115.02
1702,23692,34135.08
1703,23704,34155.14
1704,23708,34175.19
1705,23708,34195.25
1706,23704,34215.30
1707,23704,34235.36
1708,23708,34255.42
1709,23716,34275.47
1710,23728,34295.53
1711,23740,34315.58
1712,23756,34335.64
1713,23772,34355.69
1714,23788,34375.75
1715,23800,34395.81
1716,23816,34415.86
1717,23832,34435.92
1718,23848,34455.97
1719,23860,34476.03
1720,23876,34496.09
1721,23888,34516.14
1722,23900,34536.20
1723,23912,34556.25
1724,23920,34576.31
1725,23932,34596.36
1726,23940,34616.42
1727,23952,34636.48
1728,23968,34656.53
1729,23976,34676.59
1730,23988,34696.64
1731,23996,34716.70
1732,23988,34736.76
1733,23952,34756.81
1734,23884,34776.87
1735,23804,34796.92
1736,23728,34816.98
1737,23676,34837.04
1738,23648,34857.09
1739,23636,34877.15
1740,23632,34897.20
1741,23644,34917.26
1742,23652,34937.31
1743,23664,34957.37
1744,23676,34977.43
1745,23692,34997.48
1746,23708,35017.54
1747,23716,35037.59
1748,23728,35057.65
1749,23736,35077.71
1750,23744,35097.76
1751,23748,35117.82
1752,23748,35137.87
1753,23756,35157.93
1754,23764,35177.98
1755,23772,35198.04
1756,23784,35218.10
1757,23796,35238.15
1758,23812,35258.21
1759,23820,35278.26
1760,23836,35298.32
1761,23852,35318.38
1762,23872,35338.43
1763,23888,35358.49
1764,23904,35378.54
1765,23920,35398.60
1766,23928,35418.66
1767,23940,35438.71
1768,23952,35458.77
1769,23964,35478.82
1770,23972,35498.88
1771,23980,35518.93
1772,23984,35538.99
1773,23980,35559.05
1774,23940,35579.10
1775,23864,35599.16
1776,23764,35619.21
1777,23672,35639.27
1778,23596,35659.33
1779,23548,35679.38
1780,23532,35699.44
1781,23536,35719.49
1782,23548,35739.55
1783,23568,35759.60
1784,23588,35779.66
1785,23608,35799.72
1786,23628,35819.77
1787,23644,35839.83
1788,23652,35859.88
1789,23656,35879.94
1790,23656,35900.00
1791,23648,35920.05
1792,23648,35940.11
1793,23644,35960.16
1794,23652,35980.22
1795,23664,36000.28
1796,23680,36020.33
1797,23692,36040.39
1798,23708,36060.44
1799,23720,36080.50
1800,23740,36100.55
1801,23756,36120.61
1802,23772,36140.67
1803,23788,36160.72
1804,23808,36180.78
1805,23824,36200.83
1806,23836,36220.89
1807,23848,36240.95
1808,23856,36261.00
1809,23868,36281.06
1810,23884,36301.11
1811,23892,36321.17
1812,23896,36341.22
1813,23876,36361.28
1814,23828,36381.34
1815,23756,36401.39
1816,23676,36421.45
1817,23604,36441.50
1818,23556,36461.56
1819,23532,36481.62
1820,23532,36501.67
1821,23532,36521.73
1822,23540,36541.78
1823,23552,36561.84
1824,23568,36581.90
1825,23580,36601.95
1826,23592,36622.01
1827,23604,36642.06
1828,23608,36662.12
1829,23604,36682.17
1830,23600,36702.23
1831,23600,36722.29
1832,23600,36742.34
1833,23600,36762.40
1834,23604,36782.45
1835,23616,36802.51
1836,23624,36822.57
1837,23640,36842.62
1838,23652,36862.68
1839,23668,36882.73
1840,23684,36902.79
1841,23700,36922.84
1842,23716,36942.90
1843,23728,36962.96
1844,23736,36983.01
1845,23744,37003.07
1846,23752,37023.12
1847,23764,37043.18
1848,23776,37063.24
1849,23788,37083.29
1850,23788,37103.35
1851,23760,37123.40
1852,23696,37143.46
1853,23616,37163.52
1854,23536,37183.57
1855,23476,37203.63
1856,23440,37223.68
1857,23428,37243.74
1858,23428,37263.79
1859,23440,37283.85
1860,23448,37303.91
1861,23464,37323.96
1862,23476,37344.02
1863,23492,37364.07
1864,23500,37384.13
1865,23504,37404.19
1866,23508,37424.24
1867,23508,37444.30
1868,23504,37464.35
1869,23504,37484.41
1870,23504,37504.46
1871,23516,37524.52
1872,23524,37544.58
1873,23536,37564.63
1874,23552,37584.69
1875,23568,37604.74
1876,23588,37624.80
1877,23604,37644.86
1878,23624,37664.91
1879,23640,37684.97
1880,23656,37705.02
1881,23668,37725.08
1882,23680,37745.14
1883,23692,37765.19
1884,23700,37785.25
1885,23716,37805.30
1886,23728,37825.36
1887,23736,37845.41
1888,23724,37865.47
1889,23672,37885.53
1890,23600,37905.58
1891,23528,37925.64
1892,23468,37945.69
1893,23432,37965.75
1894,23424,37985.81
1895,23424,38005.86
1896,23436,38025.92
1897,23448,38045.97
1898,23464,38066.03
1899,23480,38086.08
1900,23500,38106.14
1901,23508,38126.20
1902,23520,38146.25
1903,23528,38166.31
1904,23524,38186.36
1905,23528,38206.42
1906,23524,38226.48
1907,23532,38246.53
1908,23540,38266.59
1909,23552,38286.64
1910,23564,38306.70
1911,23580,38326.76
1912,23596,38346.81
1913,23612,38366.87
1914,23632,38386.92
1915,23648,38406.98
1916,23664,38427.03
1917,23680,38447.09
1918,23696,38467.15
1919,23712,38487.20
1920,23724,38507.26
1921,23736,38527.31
1922,23740,38547.37
1923,23716,38567.43
1924,23664,38587.48
1925,23604,38607.54
1926,23548,38627.59
1927,23512,38647.65
1928,23496,38667.71
1929,23496,38687.76
1930,23500,38707.82
1931,23512,38727.87
1932,23528,38747.93
1933,23544,38767.98
1934,23564,38788.04
1935,23588,38808.10
1936,23600,38828.15
1937,23608,38848.21
1938,23612,38868.26
1939,23616,38888.32
1940,23620,38908.38
1941,23628,38928.43
1942,23640,38948.49
1943,23648,38968.54
1944,23664,38988.60
1945,23684,39008.65
1946,23700,39028.71
1947,23724,39048.77
1948,23740,39068.82
1949,23756,39088.88
1950,23772,39108.93
1951,23792,39128.99
1952,23808,39149.05
1953,23824,39169.10
1954,23844,39189.16
1955,23864,39209.21
1956,23880,39229.27
1957,23888,39249.33
1958,23876,39269.38
1959,23836,39289.44
1960,23784,39309.49
1961,23732,39329.55
1962,23684,39349.60
1963,23660,39369.66
1964,23652,39389.72
1965,23652,39409.77
1966,23656,39429.83
1967,23656,39449.88
1968,23660,39469.94
1969,23672,39490.00
1970,23680,39510.05
1971,23692,39530.11
1972,23700,39550.16
1973,23708,39570.22
1974,23712,39590.27
1975,23712,39610.33
1976,23716,39630.39
1977,23724,39650.44
1978,23736,39670.50
1979,23748,39690.55
1980,23764,39710.61
1981,23780,39730.67
1982,23796,39750.72
1983,23816,39770.78
1984,23836,39790.83
1985,23856,39810.89
1986,23872,39830.95
1987,23892,39851.00
1988,23908,39871.06
1989,23928,39891.11
1990,23948,39911.17
1991,23968,39931.22
1992,23988,39951.28
1993,24008,39971.34
1994,24024,39991.39
1995,24044,40011.45
1996,24064,40031.50
1997,24080,40051.56
1998,24100,40071.62
1999,24116,40091.67
2000,24132,40111.73
2001,24148,40131.78
2002,24140,40151.84
2003,24116,40171.89
2004,24076,40191.95
2005,24020,40212.01
2006,23976,40232.06
2007,23940,40252.12
2008,23920,40272.17
2009,23908,40292.23
2010,23904,40312.29
2011,23900,40332.34
2012,23896,40352.40
2013,23896,40372.45
2014,23896,40392.51
2015,23900,40412.57
2016,23904,40432.62
2017,23904,40452.68
2018,23908,40472.73
2019,23908,40492.79
2020,23908,40512.84
2021,23912,40532.90
2022,23920,40552.96
2023,23924,40573.01
2024,23936,40593.07
2025,23948,40613.12
2026,23956,40633.18
2027,23972,40653.24
2028,23980,40673.29
2029,23996,40693.35
2030,24008,40713.40
2031,24020,40733.46
2032,24036,40753.51
2033,24048,40773.57
2034,24064,40793.63
2035,24076,40813.68
2036,24088,40833.74
2037,24100,40853.79
2038,24116,40873.85
2039,24132,40893.91
2040,24148,40913.96
2041,24164,40934.02
2042,24180,40954.07
2043,24196,40974.13
2044,24212,40994.19
2045,24224,41014.24
2046,24240,41034.30
2047,24252,41054.35
2048,24268,41074.41
2049,24284,41094.46
2050,24300,41114.52
2051,24316,41134.58
2052,24332,41154.63
2053,24344,41174.69
2054,24340,41194.74
2055,24320,41214.80
2056,24284,41234.86
2057,24244,41254.91
2058,24208,41274.97
2059,24184,41295.02
2060,24168,41315.08
2061,24164,41335.13
2062,24164,41355.19
2063,24160,41375.25
2064,24164,41395.30
2065,24160,41415.36
2066,24164,41435.41
2067,24164,41455.47
2068,24164,41475.53
2069,24168,41495.58
2070,24172,41515.64
2071,24176,41535.69
2072,24172,41555.75
2073,24168,41575.81
2074,24172,41595.86
2075,24172,41615.92
2076,24172,41635.97
2077,24176,41656.03
2078,24180,41676.08
2079,24184,41696.14
2080,24188,41716.20
2081,24196,41736.25
2082,24204,41756.31
2083,24212,41776.36
2084,24220,41796.42
2085,24228,41816.48
2086,24236,41836.53
2087,24244,41856.59
2088,24256,41876.64
2089,24264,41896.70
2090,24276,41916.75
2091,24288,41936.81
2092,24300,41956.87
2093,24312,41976.92
2094,24324,41996.98
2095,24332,42017.03
2096,24344,42037.09
2097,24356,42057.15
2098,24368,42077.20
2099,24380,42097.26
2100,24396,42117.31
2101,24408,42137.37
2102,24420,42157.43
2103,24432,42177.48
2104,24432,42197.54
2105,24408,42217.59
2106,24376,42237.65
2107,24344,42257.70
2108,24308,42277.76
2109,24280,42297.82
2110,24260,42317.87
2111,24248,42337.93
2112,24240,42357.98
2113,24236,42378.04
2114,24232,42398.10
2115,24232,42418.15
2116,24232,42438.21
2117,24232,42458.26
2118,24232,42478.32
2119,24232,42498.37
2120,24232,42518.43
2121,24232,42538.49
2122,24232,42558.54
2123,24232,42578.60
2124,24232,42598.65
2125,24232,42618.71
2126,24236,42638.77
2127,24240,42658.82
2128,24248,42678.88
2129,24260,42698.93
2130,24268,42718.99
2131,24272,42739.05
2132,24280,42759.10
2133,24288,42779.16
2134,24296,42799.21
2135,24304,42819.27
2136,24312,42839.32
2137,24320,42859.38
2138,24328,42879.44
2139,24332,42899.49
2140,24348,42919.55
2141,24356,42939.60
2142,24368,42959.66
2143,24372,42979.72
2144,24384,42999.77
2145,24388,43019.83
2146,24392,43039.88
2147,24400,43059.94
2148,24408,43080.00
2149,24420,43100.05
2150,24424,43120.11
2151,24424,43140.16
2152,24412,43160.22
2153,24388,43180.27
2154,24352,43200.33
2155,24316,43220.39
2156,24284,43240.44
2157,24264,43260.50
2158,24252,43280.55
2159,24248,43300.61
2160,24244,43320.67
2161,24248,43340.72
2162,24248,43360.78
2163,24248,43380.83
2164,24248,43400.89
2165,24252,43420.94
2166,24256,43441.00
2167,24260,43461.06
2168,24260,43481.11
2169,24256,43501.17
2170,24256,43521.22
2171,24256,43541.28
2172,24260,43561.34
2173,24260,43581.39
2174,24264,43601.45
2175,24268,43621.50
2176,24276,43641.56
2177,24288,43661.62
2178,24296,43681.67
2179,24308,43701.73
2180,24312,43721.78
2181,24324,43741.84
2182,24332,43761.89
2183,24340,43781.95
2184,24348,43802.01
2185,24356,43822.06
2186,24368,43842.12
2187,24376,43862.17
2188,24384,43882.23
2189,24392,43902.29
2190,24400,43922.34
2191,24404,43942.40
2192,24416,43962.45
2193,24420,43982.51
2194,24428,44002.56
2195,24424,44022.62
2196,24404,44042.68
2197,24376,44062.73
2198,24332,44082.79
2199,24292,44102.84
2200,24256,44122.90
2201,24228,44142.96
2202,24216,44163.01
2203,24204,44183.07
2204,24196,44203.12
2205,24192,44223.18
2206,24192,44243.24
2207,24192,44263.29
2208,24192,44283.35
2209,24188,44303.40
2210,24184,44323.46
2211,24180,44343.51
2212,24180,44363.57
2213,24172,44383.63
2214,24168,44403.68
2215,24164,44423.74
2216,24164,44443.79
2217,24168,44463.85
2218,24172,44483.91
2219,24180,44503.96
2220,24188,44524.02
2221,24200,44544.07
2222,24212,44564.13
2223,24220,44584.18
2224,24232,44604.24
2225,24244,44624.30
2226,24260,44644.35
2227,24264,44664.41
2228,24276,44684.46
2229,24280,44704.52
2230,24288,44724.58
2231,24300,44744.63
2232,24304,44764.69
2233,24312,44784.74
2234,24324,44804.80
2235,24332,44824.86
2236,24324,44844.91
2237,24296,44864.97
2238,24248,44885.02
2239,24200,44905.08
2240,24144,44925.13
2241,24096,44945.19
2242,24068,44965.25
2243,24052,44985.30
2244,24040,45005.36
2245,24036,45025.41
2246,24028,45045.47
2247,24024,45065.53
2248,24016,45085.58
2249,24020,45105.64
2250,24016,45125.69
2251,24020,45145.75
2252,24012,45165.80
2253,24004,45185.86
2254,24000,45205.92
2255,23996,45225.97
2256,23996,45246.03
2257,23996,45266.08
2258,24000,45286.14
2259,24004,45306.20
2260,24008,45326.25
2261,24016,45346.31
2262,24024,45366.36
2263,24032,45386.42
2264,24044,45406.48
2265,24052,45426.53
2266,24060,45446.59
2267,24068,45466.64
2268,24076,45486.70
2269,24080,45506.75
2270,24088,45526.81
2271,24096,45546.87
2272,24108,45566.92
2273,24116,45586.98
2274,24128,45607.03
2275,24140,45627.09
2276,24152,45647.15
2277,24152,45667.20
2278,24132,45687.26
2279,24092,45707.31
2280,24036,45727.37
2281,23972,45747.42
2282,23912,45767.48
2283,23872,45787.54
2284,23844,45807.59
2285,23832,45827.65
2286,23828,45847.70
2287,23824,45867.76
2288,23824,45887.82
2289,23824,45907.87
2290,23828,45927.93
2291,23828,45947.98
2292,23832,45968.04
2293,23828,45988.10
2294,23820,46008.15
2295,23816,46028.21
2296,23812,46048.26
2297,23808,46068.32
2298,23808,46088.37
2299,23812,46108.43
2300,23816,46128.49
2301,23828,46148.54
2302,23840,46168.60
2303,23848,46188.65
2304,23856,46208.71
2305,23868,46228.77
2306,23876,46248.82
2307,23884,46268.88
2308,23892,46288.93
2309,23896,46308.99
2310,23908,46329.04
2311,23916,46349.10
2312,23928,46369.16
2313,23940,46389.21
2314,23952,46409.27
2315,23964,46429.32
2316,23976,46449.38
2317,23988,46469.44
2318,24000,46489.49
2319,24012,46509.55
2320,24016,46529.60
2321,24000,46549.66
2322,23964,46569.72
2323,23904,46589.77
2324,23844,46609.83
2325,23792,46629.88
2326,23760,46649.94
2327,23744,46669.99
2328,23740,46690.05
2329,23744,46710.11
2330,23752,46730.16
2331,23764,46750.22
2332,23776,46770.27
2333,23788,46790.33
2334,23796,46810.39
2335,23800,46830.44
2336,23800,46850.50
2337,23800,46870.55
2338,23792,46890.61
2339,23792,46910.66
2340,23792,46930.72
2341,23792,46950.78
2342,23796,46970.83
2343,23796,46990.89
2344,23800,47010.94
2345,23804,47031.00
2346,23804,47051.06
2347,23808,47071.11
2348,23812,47091.17
2349,23820,47111.22
2350,23824,47131.28
2351,23828,47151.34
2352,23836,47171.39
2353,23840,47191.45
2354,23848,47211.50
2355,23860,47231.56
2356,23864,47251.61
2357,23872,47271.67
2358,23872,47291.73
2359,23844,47311.78
2360,23800,47331.84
2361,23740,47351.89
2362,23684,47371.95
2363,23640,47392.01
2364,23616,47412.06
2365,23600,47432.12
2366,23596,47452.17
2367,23604,47472.23
2368,23616,47492.29
2369,23628,47512.34
2370,23640,47532.40
2371,23652,47552.45
2372,23656,47572.51
2373,23664,47592.56
2374,23664,47612.62
2375,23664,47632.68
2376,23660,47652.73
2377,23656,47672.79
2378,23660,47692.84
2379,23664,47712.90
2380,23672,47732.96
2381,23684,47753.01
2382,23696,47773.07
2383,23708,47793.12
2384,23716,47813.18
2385,23728,47833.23
2386,23736,47853.29
2387,23748,47873.35
2388,23756,47893.40
2389,23760,47913.46
2390,23768,47933.51
2391,23772,47953.57
2392,23768,47973.63
2393,23736,47993.68
2394,23688,48013.74
2395,23612,48033.79
2396,23548,48053.85
2397,23500,48073.91
2398,23476,48093.96
2399,23468,48114.02
2400,23472,48134.07
2401,23480,48154.13
2402,23488,48174.18
2403,23504,48194.24
2404,23520,48214.30
2405,23536,48234.35
2406,23544,48254.41
2407,23544,48274.46
2408,23540,48294.52
2409,23532,48314.58
2410,23528,48334.63
2411,23532,48354.69
2412,23536,48374.74
2413,23544,48394.80
2414,23556,48414.85
2415,23572,48434.91
2416,23588,48454.97
2417,23604,48475.02
2418,23620,48495.08
2419,23632,48515.13
2420,23648,48535.19
2421,23664,48555.25
2422,23680,48575.30
2423,23696,48595.36
2424,23712,48615.41
2425,23724,48635.47
2426,23736,48655.53
2427,23728,48675.58
2428,23696,48695.64
2429,23632,48715.69
2430,23564,48735.75
2431,23508,48755.80
2432,23468,48775.86
2433,23448,48795.92
2434,23444,48815.97
2435,23448,48836.03
2436,23456,48856.08
2437,23464,48876.14
2438,23468,48896.20
2439,23476,48916.25
2440,23488,48936.31
2441,23500,48956.36
2442,23516,48976.42
2443,23524,48996.47
2444,23528,49016.53
2445,23528,49036.59
2446,23528,49056.64
2447,23536,49076.70
2448,23544,49096.75
2449,23560,49116.81
2450,23576,49136.87
2451,23592,49156.92
2452,23608,49176.98
2453,23624,49197.03
2454,23644,49217.09
2455,23660,49237.15
2456,23672,49257.20
2457,23688,49277.26
2458,23704,49297.31
2459,23716,49317.37
2460,23728,49337.42
2461,23744,49357.48
2462,23756,49377.54
2463,23768,49397.59
2464,23780,49417.65
2465,23804,49437.70
2466,23824,49457.76
2467,23836,49477.82
2468,23824,49497.87
2469,23792,49517.93
2470,23748,49537.98
2471,23704,49558.04
2472,23672,49578.09
2473,23660,49598.15
2474,23656,49618.21
2475,23668,49638.26
2476,23684,49658.32
2477,23700,49678.37
2478,23712,49698.43
2479,23724,49718.49
2480,23740,49738.54
2481,23756,49758.60
2482,23768,49778.65
2483,23784,49798.71
2484,23796,49818.77
2485,23812,49838.82
2486,23824,49858.88
2487,23840,49878.93
2488,23856,49898.99
2489,23872,49919.04
2490,23888,49939.10
2491,23908,49959.16
2492,23936,49979.21
2493,23956,49999.27
2494,23976,50019.32
2495,23996,50039.38
2496,24020,50059.44
2497,24044,50079.49
2498,24068,50099.55
2499,24088,50119.60
2500,24108,50139.66
2501,24128,50159.71
2502,24152,50179.77
2503,24172,50199.83
2504,24196,50219.88
2505,24216,50239.94
2506,24236,50259.99
2507,24260,50280.05
2508,24276,50300.11
2509,24296,50320.16
2510,24316,50340.22
2511,24332,50360.27
2512,24344,50380.33
2513,24348,50400.39
2514,24340,50420.44
2515,24320,50440.50
2516,24292,50460.55
2517,24272,50480.61
2518,24256,50500.66
2519,24248,50520.72
2520,24244,50540.78
2521,24244,50560.83
2522,24248,50580.89
2523,24256,50600.94
2524,24260,50621.00
2525,24272,50641.06
2526,24280,50661.11
2527,24288,50681.17
2528,24300,50701.22
2529,24308,50721.28
2530,24316,50741.33
2531,24320,50761.39
2532,24324,50781.45
2533,24336,50801.50
2534,24348,50821.56
2535,24360,50841.61
2536,24376,50861.67
2537,24388,50881.73
2538,24400,50901.78
2539,24416,50921.84
2540,24428,50941.89
2541,24440,50961.95
2542,24452,50982.01
2543,24464,51002.06
2544,24480,51022.12
2545,24496,51042.17
2546,24512,51062.23
2547,24528,51082.28
2548,24540,51102.34
2549,24548,51122.40
2550,24560,51142.45
2551,24568,51162.51
2552,24576,51182.56
2553,24588,51202.62
2554,24600,51222.68
2555,24608,51242.73
2556,24616,51262.79
2557,24624,51282.84
2558,24616,51302.90
2559,24608,51322.95
2560,24592,51343.01
2561,24584,51363.07
2562,24580,51383.12
2563,24576,51403.18
2564,24576,51423.23
2565,24576,51443.29
2566,24580,51463.35
2567,24580,51483.40
2568,24584,51503.46
2569,24584,51523.51
2570,24580,51543.57
2571,24580,51563.63
2572,24580,51583.68
2573,24576,51603.74
2574,24572,51623.79
2575,24564,51643.85
2576,24564,51663.90
2577,24560,51683.96
2578,24564,51704.02
2579,24568,51724.07
2580,24572,51744.13
2581,24580,51764.18
2582,24584,51784.24
2583,24592,51804.30
2584,24600,51824.35
2585,24608,51844.41
2586,24608,51864.46
2587,24616,51884.52
2588,24628,51904.58
2589,24636,51924.63
2590,24644,51944.69
2591,24652,51964.74
2592,24660,51984.80
2593,24672,52004.85
2594,24684,52024.91
2595,24688,52044.97
2596,24696,52065.02
2597,24704,52085.08
2598,24712,52105.13
2599,24712,52125.19
2600,24712,52145.25
2601,24716,52165.30
2602,24716,52185.36
2603,24724,52205.41
2604,24732,52225.47
2605,24744,52245.52
2606,24752,52265.58
2607,24764,52285.64
2608,24776,52305.69
2609,24788,52325.75
2610,24796,52345.80
2611,24808,52365.86
2612,24820,52385.92
2613,24824,52405.97
2614,24832,52426.03
2615,24840,52446.08
2616,24848,52466.14
2617,24852,52486.20
2618,24864,52506.25
2619,24872,52526.31
2620,24884,52546.36
2621,24892,52566.42
2622,24900,52586.47
2623,24904,52606.53
2624,24908,52626.59
2625,24916,52646.64
2626,24920,52666.70
2627,24924,52686.75
2628,24928,52706.81
2629,24932,52726.87
2630,24936,52746.92
2631,24940,52766.98
2632,24948,52787.03
2633,24948,52807.09
2634,24952,52827.14
2635,24952,52847.20
2636,24948,52867.26
2637,24948,52887.31
2638,24944,52907.37
2639,24944,52927.42
2640,24948,52947.48
2641,24952,52967.54
2642,24960,52987.59
2643,24964,53007.65
2644,24968,53027.70
2645,24968,53047.76
2646,24968,53067.82
2647,24968,53087.87
2648,24972,53107.93
2649,24972,53127.98
2650,24976,53148.04
2651,24976,53168.09
2652,24976,53188.15
2653,24976,53208.21
2654,24976,53228.26
2655,24980,53248.32
2656,24980,53268.37
2657,24988,53288.43
2658,24992,53308.49
2659,24996,53328.54
2660,25004,53348.60
2661,25004,53368.65
2662,25008,53388.71
2663,25008,53408.76
2664,25012,53428.82
2665,25012,53448.88
2666,25016,53468.93
2667,25016,53488.99
2668,25024,53509.04
2669,25028,53529.10
2670,25032,53549.16
2671,25036,53569.21
2672,25040,53589.27
2673,25048,53609.32
2674,25044,53629.38
2675,25040,53649.44
2676,25036,53669.49
2677,25036,53689.55
2678,25036,53709.60
2679,25040,53729.66
2680,25044,53749.71
2681,25048,53769.77
2682,25052,53789.83
2683,25056,53809.88
2684,25052,53829.94
2685,25052,53849.99
2686,25056,53870.05
2687,25052,53890.11
2688,25052,53910.16
2689,25052,53930.22
2690,25056,53950.27
2691,25056,53970.33
2692,25056,53990.38
2693,25056,54010.44
2694,25056,54030.50
2695,25056,54050.55
2696,25060,54070.61
2697,25064,54090.66
2698,25068,54110.72
2699,25072,54130.78
2700,25072,54150.83
2701,25076,54170.89
2702,25080,54190.94
2703,25084,54211.00
2704,25084,54231.06
2705,25088,54251.11
2706,25092,54271.17
2707,25096,54291.22
2708,25104,54311.28
2709,25108,54331.33
2710,25116,54351.39
2711,25120,54371.45
2712,25124,54391.50
2713,25128,54411.56
2714,25132,54431.61
2715,25140,54451.67
2716,25144,54471.73
2717,25144,54491.78
2718,25144,54511.84
2719,25140,54531.89
2720,25136,54551.95
2721,25136,54572.00
2722,25136,54592.06
2723,25140,54612.12
2724,25148,54632.17
2725,25152,54652.23
2726,25160,54672.28
2727,25164,54692.34
2728,25164,54712.40
2729,25172,54732.45
2730,25176,54752.51
2731,25176,54772.56
2732,25180,54792.62
2733,25184,54812.68
2734,25184,54832.73
2735,25188,54852.79
2736,25192,54872.84
2737,25196,54892.90
2738,25204,54912.95
2739,25208,54933.01
2740,25216,54953.07
2741,25216,54973.12
2742,25220,54993.18
2743,25224,55013.23
2744,25228,55033.29
2745,25232,55053.35
2746,25236,55073.40
2747,25244,55093.46
2748,25248,55113.51
2749,25256,55133.57
2750,25260,55153.62
2751,25264,55173.68
2752,25268,55193.74
2753,25276,55213.79
2754,25284,55233.85
2755,25292,55253.90
2756,25292,55273.96
2757,25300,55294.02
2758,25308,55314.07
2759,25312,55334.13
2760,25316,55354.18
2761,25320,55374.24
2762,25320,55394.30
2763,25324,55414.35
2764,25328,55434.41
2765,25328,55454.46
2766,25320,55474.52
2767,25320,55494.57
2768,25312,55514.63
2769,25312,55534.69
2770,25308,55554.74
2771,25316,55574.80
2772,25320,55594.85
2773,25328,55614.91
2774,25332,55634.97
2775,25336,55655.02
2776,25344,55675.08
2777,25348,55695.13
2778,25348,55715.19
2779,25352,55735.24
2780,25352,55755.30
2781,25356,55775.36
2782,25356,55795.41
2783,25356,55815.47
2784,25360,55835.52
2785,25360,55855.58
2786,25360,55875.64
2787,25368,55895.69
2788,25368,55915.75
2789,25372,55935.80
2790,25372,55955.86
2791,25376,55975.92
2792,25376,55995.97
2793,25380,56016.03
2794,25380,56036.08
2795,25384,56056.14
2796,25384,56076.19
2797,25384,56096.25
2798,25388,56116.31
2799,25392,56136.36
2800,25392,56156.42
2801,25392,56176.47
2802,25396,56196.53
2803,25396,56216.59
2804,25400,56236.64
2805,25400,56256.70
2806,25400,56276.75
2807,25400,56296.81
2808,25404,56316.86
2809,25408,56336.92
2810,25408,56356.98
2811,25412,56377.03
2812,25412,56397.09
2813,25416,56417.14
2814,25412,56437.20
2815,25404,56457.26
2816,25392,56477.31
2817,25384,56497.37
2818,25376,56517.42
2819,25372,56537.48
2820,25372,56557.54
2821,25372,56577.59
2822,25376,56597.65
2823,25372,56617.70
2824,25372,56637.76
2825,25372,56657.81
2826,25372,56677.87
2827,25372,56697.93
2828,25372,56717.98
2829,25372,56738.04
2830,25368,56758.09
2831,25364,56778.15
2832,25364,56798.21
2833,25360,56818.26
2834,25360,56838.32
2835,25360,56858.37
2836,25364,56878.43
2837,25364,56898.49
2838,25368,56918.54
2839,25368,56938.60
2840,25376,56958.65
2841,25376,56978.71
2842,25376,56998.76
2843,25376,57018.82
2844,25380,57038.88
2845,25380,57058.93
2846,25380,57078.99
2847,25384,57099.04
2848,25388,57119.10
2849,25388,57139.16
2850,25392,57159.21
2851,25396,57179.27
2852,25400,57199.32
2853,25400,57219.38
2854,25404,57239.43
2855,25408,57259.49
2856,25412,57279.55
2857,25416,57299.60
2858,25420,57319.66
2859,25424,57339.71
2860,25420,57359.77
2861,25416,57379.83
2862,25408,57399.88
2863,25392,57419.94
2864,25376,57439.99
2865,25364,57460.05
2866,25356,57480.11
2867,25352,57500.16
2868,25352,57520.22
2869,25356,57540.27
2870,25356,57560.33
2871,25360,57580.38
2872,25360,57600.44
2873,25356,57620.50
2874,25352,57640.55
2875,25352,57660.61
2876,25348,57680.66
2877,25348,57700.72
2878,25344,57720.78
2879,25340,57740.83
2880,25340,57760.89
2881,25336,57780.94
2882,25336,57801.00
2883,25332,57821.05
2884,25332,57841.11
2885,25332,57861.17
2886,25328,57881.22
2887,25328,57901.28
2888,25328,57921.33
2889,25332,57941.39
2890,25332,57961.45
2891,25336,57981.50
2892,25336,58001.56
2893,25336,58021.61
2894,25332,58041.67
2895,25332,58061.73
2896,25336,58081.78
2897,25340,58101.84
2898,25344,58121.89
2899,25344,58141.95
2900,25348,58162.00
2901,25356,58182.06
2902,25356,58202.12
2903,25360,58222.17
2904,25360,58242.23
2905,25360,58262.28
2906,25360,58282.34
2907,25348,58302.40
2908,25336,58322.45
2909,25316,58342.51
2910,25296,58362.56
2911,25284,58382.62
2912,25272,58402.67
2913,25268,58422.73
2914,25260,58442.79
2915,25260,58462.84
2916,25256,58482.90
2917,25256,58502.95
2918,25256,58523.01
2919,25256,58543.07
2920,25252,58563.12
2921,25252,58583.18
2922,25244,58603.23
2923,25240,58623.29
2924,25236,58643.35
2925,25228,58663.40
2926,25224,58683.46
2927,25220,58703.51
2928,25220,58723.57
2929,25220,58743.62
2930,25220,58763.68
2931,25220,58783.74
2932,25220,58803.79
2933,25216,58823.85
2934,25216,58843.90
2935,25216,58863.96
2936,25216,58884.02
2937,25216,58904.07
2938,25220,58924.13
2939,25220,58944.18
2940,25216,58964.24
2941,25216,58984.29
2942,25216,59004.35
2943,25216,59024.41
2944,25208,59044.46
2945,25208,59064.52
2946,25204,59084.57
2947,25204,59104.63
2948,25204,59124.69
2949,25204,59144.74
2950,25204,59164.80
2951,25204,59184.85
2952,25200,59204.91
2953,25184,59224.97
2954,25164,59245.02
2955,25136,59265.08
2956,25112,59285.13
2957,25092,59305.19
2958,25080,59325.24
2959,25072,59345.30
2960,25068,59365.36
2961,25064,59385.41
2962,25060,59405.47
2963,25056,59425.52
2964,25048,59445.58
2965,25044,59465.64
2966,25040,59485.69
2967,25032,59505.75
2968,25028,59525.80
2969,25024,59545.86
2970,25016,59565.91
2971,25008,59585.97
2972,25004,59606.03
2973,24996,59626.08
2974,24996,59646.14
2975,24996,59666.19
2976,24996,59686.25
2977,24996,59706.31
2978,25000,59726.36
2979,25000,59746.42
2980,25000,59766.47
2981,24996,59786.53
2982,25004,59806.59
2983,25004,59826.64
2984,25004,59846.70
2985,25008,59866.75
2986,25008,59886.81
2987,25008,59906.86
2988,25012,59926.92
2989,25020,59946.98
2990,25020,59967.03
2991,25020,59987.09
2992,25024,60007.14
2993,25020,60027.20
2994,25008,60047.26
2995,24988,60067.31
2996,24960,60087.37
2997,24940,60107.42
2998,24920,60127.48
2999,24904,60147.53
