Sample_Index,IR_Value,Timestamp_ms
0,21964,0.00
1,21920,19.98
2,22112,39.95
3,22328,59.93
4,22516,79.91
5,22600,99.88
6,22648,119.86
7,22816,139.84
8,22984,159.81
9,23152,179.79
10,23316,199.77
11,23484,219.74
12,23648,239.72
13,23788,259.70
14,23900,279.67
15,23996,299.65
16,24076,319.63
17,24140,339.60
18,24184,359.58
19,24220,379.56
20,24240,399.53
21,24252,419.51
22,24244,439.49
23,24224,459.46
24,24204,479.44
25,24164,499.42
26,24156,519.39
27,24168,539.37
28,24172,559.35
29,24176,579.32
30,24180,599.30
31,24196,619.28
32,24196,639.25
33,24208,659.23
34,24204,679.21
35,24204,699.18
36,24200,719.16
37,24188,739.14
38,24176,759.11
39,24160,779.09
40,24144,799.06
41,24132,819.04
42,24124,839.02
43,24124,858.99
44,24124,878.97
45,24120,898.95
46,24112,918.92
47,24108,938.90
48,24116,958.88
49,24120,978.85
50,24128,998.83
51,24124,1018.81
52,24120,1038.78
53,24116,1058.76
54,24116,1078.74
55,24116,1098.71
56,24116,1118.69
57,24120,1138.67
58,24128,1158.64
59,24128,1178.62
60,24140,1198.60
61,24140,1218.57
62,24148,1238.55
63,24148,1258.53
64,24152,1278.50
65,24156,1298.48
66,24116,1318.46
67,24084,1338.43
68,24068,1358.41
69,24056,1378.39
70,24056,1398.36
71,24044,1418.34
72,24080,1438.32
73,24016,1458.29
74,24028,1478.27
75,24064,1498.25
76,24068,1518.22
77,24052,1538.20
78,24044,1558.18
79,24036,1578.15
80,24024,1598.13
81,24012,1618.11
82,23980,1638.08
83,23944,1658.06
84,23896,1678.04
85,23864,1698.01
86,23836,1717.99
87,23820,1737.97
88,23792,1757.94
89,23780,1777.92
90,23772,1797.90
91,23768,1817.87
92,23760,1837.85
93,23752,1857.83
94,23748,1877.80
95,23744,1897.78
96,23732,1917.76
97,23724,1937.73
98,23720,1957.71
99,23708,1977.69
100,23700,1997.66
101,23692,2017.64
102,23684,2037.62
103,23676,2057.59
104,23668,2077.57
105,23664,2097.55
106,23668,2117.52
107,23664,2137.50
108,23660,2157.48
109,23656,2177.45
110,23656,2197.43
111,23656,2217.41
112,23660,2237.38
113,23656,2257.36
114,23656,2277.34
115,23656,2297.31
116,23660,2317.29
117,23656,2337.26
118,23656,2357.24
119,23656,2377.22
120,23652,2397.19
121,23656,2417.17
122,23656,2437.15
123,23656,2457.12
124,23656,2477.10
125,23652,2497.08
126,23636,2517.05
127,23612,2537.03
128,23588,2557.01
129,23564,2576.98
130,23552,2596.96
131,23544,2616.94
132,23528,2636.91
133,23520,2656.89
134,23512,2676.87
135,23504,2696.84
136,23500,2716.82
137,23496,2736.80
138,23492,2756.77
139,23480,2776.75
140,23476,2796.73
141,23472,2816.70
142,23460,2836.68
143,23448,2856.66
144,23448,2876.63
145,23440,2896.61
146,23436,2916.59
147,23436,2936.56
148,23432,2956.54
149,23432,2976.52
150,23432,2996.49
151,23432,3016.47
152,23428,3036.45
153,23428,3056.42
154,23428,3076.40
155,23428,3096.38
156,23424,3116.35
157,23428,3136.33
158,23432,3156.31
159,23436,3176.28
160,23436,3196.26
161,23436,3216.24
162,23440,3236.21
163,23444,3256.19
164,23444,3276.17
165,23448,3296.14
166,23452,3316.12
167,23460,3336.10
168,23460,3356.07
169,23456,3376.05
170,23452,3396.03
171,23428,3416.00
172,23404,3435.98
173,23380,3455.96
174,23356,3475.93
175,23336,3495.91
176,23332,3515.89
177,23316,3535.86
178,23312,3555.84
179,23300,3575.82
180,23292,3595.79
181,23284,3615.77
182,23276,3635.75
183,23276,3655.72
184,23272,3675.70
185,23264,3695.68
186,23256,3715.65
187,23248,3735.63
188,23240,3755.61
189,23236,3775.58
190,23228,3795.56
191,23224,3815.54
192,23224,3835.51
193,23224,3855.49
194,23224,3875.46
195,23224,3895.44
196,23220,3915.42
197,23224,3935.39
198,23224,3955.37
199,23224,3975.35
200,23224,3995.32
201,23224,4015.30
202,23228,4035.28
203,23228,4055.25
204,23232,4075.23
205,23232,4095.21
206,23236,4115.18
207,23240,4135.16
208,23240,4155.14
209,23244,4175.11
210,23248,4195.09
211,23248,4215.07
212,23256,4235.04
213,23260,4255.02
214,23264,4275.00
215,23260,4294.97
216,23256,4314.95
217,23244,4334.93
218,23224,4354.90
219,23200,4374.88
220,23184,4394.86
221,23168,4414.83
222,23156,4434.81
223,23148,4454.79
224,23140,4474.76
225,23136,4494.74
226,23132,4514.72
227,23124,4534.69
228,23116,4554.67
229,23120,4574.65
230,23112,4594.62
231,23104,4614.60
232,23104,4634.58
233,23096,4654.55
234,23092,4674.53
235,23084,4694.51
236,23080,4714.48
237,23076,4734.46
238,23072,4754.44
239,23072,4774.41
240,23072,4794.39
241,23076,4814.37
242,23080,4834.34
243,23080,4854.32
244,23084,4874.30
245,23080,4894.27
246,23080,4914.25
247,23084,4934.23
248,23084,4954.20
249,23088,4974.18
250,23092,4994.16
251,23096,5014.13
252,23104,5034.11
253,23108,5054.09
254,23108,5074.06
255,23112,5094.04
256,23104,5114.02
257,23088,5133.99
258,23068,5153.97
259,23040,5173.95
260,23024,5193.92
261,23012,5213.90
262,23000,5233.88
263,22996,5253.85
264,22996,5273.83
265,22984,5293.81
266,22984,5313.78
267,22984,5333.76
268,22976,5353.74
269,22976,5373.71
270,22972,5393.69
271,22968,5413.66
272,22976,5433.64
273,22968,5453.62
274,22968,5473.59
275,22964,5493.57
276,22964,5513.55
277,22968,5533.52
278,22964,5553.50
279,22968,5573.48
280,22968,5593.45
281,22972,5613.43
282,22972,5633.41
283,22972,5653.38
284,22980,5673.36
285,22980,5693.34
286,22988,5713.31
287,22992,5733.29
288,22996,5753.27
289,23000,5773.24
290,23000,5793.22
291,23008,5813.20
292,23008,5833.17
293,23012,5853.15
294,23020,5873.13
295,23028,5893.10
296,23032,5913.08
297,23036,5933.06
298,23048,5953.03
299,23052,5973.01
300,23048,5992.99
301,23040,6012.96
302,23020,6032.94
303,22992,6052.92
304,22972,6072.89
305,22960,6092.87
306,22948,6112.85
307,22936,6132.82
308,22932,6152.80
309,22928,6172.78
310,22916,6192.75
311,22912,6212.73
312,22908,6232.71
313,22908,6252.68
314,22904,6272.66
315,22904,6292.64
316,22904,6312.61
317,22908,6332.59
318,22904,6352.57
319,22904,6372.54
320,22900,6392.52
321,22900,6412.50
322,22900,6432.47
323,22904,6452.45
324,22904,6472.43
325,22908,6492.40
326,22908,6512.38
327,22908,6532.36
328,22912,6552.33
329,22916,6572.31
330,22920,6592.29
331,22920,6612.26
332,22928,6632.24
333,22936,6652.22
334,22936,6672.19
335,22940,6692.17
336,22948,6712.15
337,22948,6732.12
338,22956,6752.10
339,22964,6772.08
340,22972,6792.05
341,22980,6812.03
342,22988,6832.01
343,22996,6851.98
344,23004,6871.96
345,23012,6891.94
346,23016,6911.91
347,23028,6931.89
348,23036,6951.86
349,23044,6971.84
350,23048,6991.82
351,23060,7011.79
352,23068,7031.77
353,23076,7051.75
354,23072,7071.72
355,23056,7091.70
356,23036,7111.68
357,23016,7131.65
358,22992,7151.63
359,22976,7171.61
360,22964,7191.58
361,22960,7211.56
362,22956,7231.54
363,22952,7251.51
364,22948,7271.49
365,22944,7291.47
366,22940,7311.44
367,22936,7331.42
368,22936,7351.40
369,22932,7371.37
370,22928,7391.35
371,22924,7411.33
372,22916,7431.30
373,22916,7451.28
374,22916,7471.26
375,22912,7491.23
376,22916,7511.21
377,22916,7531.19
378,22920,7551.16
379,22920,7571.14
380,22924,7591.12
381,22928,7611.09
382,22932,7631.07
383,22932,7651.05
384,22936,7671.02
385,22944,7691.00
386,22948,7710.98
387,22952,7730.95
388,22956,7750.93
389,22964,7770.91
390,22968,7790.88
391,22972,7810.86
392,22976,7830.84
393,22984,7850.81
394,22988,7870.79
395,22996,7890.77
396,23004,7910.74
397,23004,7930.72
398,23000,7950.70
399,22992,7970.67
400,22972,7990.65
401,22952,8010.63
402,22924,8030.60
403,22908,8050.58
404,22896,8070.56
405,22888,8090.53
406,22888,8110.51
407,22880,8130.49
408,22876,8150.46
409,22872,8170.44
410,22868,8190.42
411,22868,8210.39
412,22868,8230.37
413,22864,8250.35
414,22860,8270.32
415,22852,8290.30
416,22848,8310.28
417,22848,8330.25
418,22844,8350.23
419,22844,8370.21
420,22844,8390.18
421,22852,8410.16
422,22856,8430.14
423,22856,8450.11
424,22856,8470.09
425,22860,8490.06
426,22864,8510.04
427,22868,8530.02
428,22872,8549.99
429,22876,8569.97
430,22884,8589.95
431,22888,8609.92
432,22892,8629.90
433,22900,8649.88
434,22908,8669.85
435,22912,8689.83
436,22920,8709.81
437,22928,8729.78
438,22932,8749.76
439,22940,8769.74
440,22948,8789.71
441,22952,8809.69
442,22964,8829.67
443,22972,8849.64
444,22976,8869.62
445,22976,8889.60
446,22956,8909.57
447,22936,8929.55
448,22908,8949.53
449,22884,8969.50
450,22864,8989.48
451,22848,9009.46
452,22840,9029.43
453,22828,9049.41
454,22820,9069.39
455,22812,9089.36
456,22808,9109.34
457,22796,9129.32
458,22792,9149.29
459,22788,9169.27
460,22784,9189.25
461,22780,9209.22
462,22772,9229.20
463,22768,9249.18
464,22760,9269.15
465,22760,9289.13
466,22760,9309.11
467,22760,9329.08
468,22764,9349.06
469,22764,9369.04
470,22764,9389.01
471,22764,9408.99
472,22772,9428.97
473,22772,9448.94
474,22776,9468.92
475,22780,9488.90
476,22788,9508.87
477,22788,9528.85
478,22796,9548.83
479,22804,9568.80
480,22808,9588.78
481,22812,9608.76
482,22820,9628.73
483,22824,9648.71
484,22832,9668.69
485,22836,9688.66
486,22848,9708.64
487,22856,9728.62
488,22860,9748.59
489,22872,9768.57
490,22880,9788.55
491,22884,9808.52
492,22892,9828.50
493,22900,9848.48
494,22904,9868.45
495,22912,9888.43
496,22920,9908.41
497,22916,9928.38
498,22904,9948.36
499,22880,9968.34
500,22856,9988.31
501,22828,10008.29
502,22808,10028.26
503,22792,10048.24
504,22776,10068.22
505,22768,10088.19
506,22756,10108.17
507,22752,10128.15
508,22740,10148.12
509,22740,10168.10
510,22736,10188.08
511,22732,10208.05
512,22728,10228.03
513,22724,10248.01
514,22716,10267.98
515,22716,10287.96
516,22712,10307.94
517,22708,10327.91
518,22708,10347.89
519,22712,10367.87
520,22716,10387.84
521,22720,10407.82
522,22724,10427.80
523,22728,10447.77
524,22736,10467.75
525,22736,10487.73
526,22740,10507.70
527,22744,10527.68
528,22752,10547.66
529,22756,10567.63
530,22760,10587.61
531,22772,10607.59
532,22772,10627.56
533,22784,10647.54
534,22788,10667.52
535,22792,10687.49
536,22796,10707.47
537,22800,10727.45
538,22808,10747.42
539,22816,10767.40
540,22828,10787.38
541,22832,10807.35
542,22840,10827.33
543,22844,10847.31
544,22844,10867.28
545,22832,10887.26
546,22812,10907.24
547,22784,10927.21
548,22760,10947.19
549,22740,10967.17
550,22724,10987.14
551,22712,11007.12
552,22708,11027.10
553,22696,11047.07
554,22692,11067.05
555,22688,11087.03
556,22688,11107.00
557,22680,11126.98
558,22676,11146.96
559,22672,11166.93
560,22664,11186.91
561,22664,11206.89
562,22660,11226.86
563,22660,11246.84
564,22660,11266.82
565,22660,11286.79
566,22660,11306.77
567,22668,11326.75
568,22672,11346.72
569,22676,11366.70
570,22684,11386.68
571,22688,11406.65
572,22692,11426.63
573,22700,11446.61
574,22708,11466.58
575,22712,11486.56
576,22720,11506.54
577,22728,11526.51
578,22732,11546.49
579,22740,11566.46
580,22744,11586.44
581,22748,11606.42
582,22756,11626.39
583,22768,11646.37
584,22772,11666.35
585,22780,11686.32
586,22792,11706.30
587,22796,11726.28
588,22804,11746.25
589,22812,11766.23
590,22816,11786.21
591,22816,11806.18
592,22800,11826.16
593,22776,11846.14
594,22748,11866.11
595,22716,11886.09
596,22696,11906.07
597,22676,11926.04
598,22660,11946.02
599,22648,11966.00
600,22636,11985.97
601,22624,12005.95
602,22612,12025.93
603,22608,12045.90
604,22600,12065.88
605,22596,12085.86
606,22596,12105.83
607,22596,12125.81
608,22592,12145.79
609,22592,12165.76
610,22588,12185.74
611,22584,12205.72
612,22584,12225.69
613,22584,12245.67
614,22588,12265.65
615,22596,12285.62
616,22600,12305.60
617,22604,12325.58
618,22612,12345.55
619,22620,12365.53
620,22624,12385.51
621,22632,12405.48
622,22636,12425.46
623,22640,12445.44
624,22652,12465.41
625,22656,12485.39
626,22660,12505.37
627,22668,12525.34
628,22676,12545.32
629,22688,12565.30
630,22692,12585.27
631,22700,12605.25
632,22708,12625.23
633,22716,12645.20
634,22724,12665.18
635,22728,12685.16
636,22736,12705.13
637,22744,12725.11
638,22744,12745.09
639,22756,12765.06
640,22768,12785.04
641,22780,12805.02
642,22784,12824.99
643,22796,12844.97
644,22800,12864.95
645,22804,12884.92
646,22804,12904.90
647,22788,12924.88
648,22768,12944.85
649,22744,12964.83
650,22716,12984.81
651,22688,13004.78
652,22676,13024.76
653,22656,13044.74
654,22648,13064.71
655,22644,13084.69
656,22632,13104.66
657,22628,13124.64
658,22624,13144.62
659,22620,13164.59
660,22616,13184.57
661,22616,13204.55
662,22612,13224.52
663,22608,13244.50
664,22608,13264.48
665,22604,13284.45
666,22600,13304.43
667,22596,13324.41
668,22600,13344.38
669,22600,13364.36
670,22608,13384.34
671,22608,13404.31
672,22620,13424.29
673,22624,13444.27
674,22632,13464.24
675,22636,13484.22
676,22640,13504.20
677,22640,13524.17
678,22640,13544.15
679,22640,13564.13
680,22648,13584.10
681,22652,13604.08
682,22656,13624.06
683,22664,13644.03
684,22668,13664.01
685,22672,13683.99
686,22680,13703.96
687,22688,13723.94
688,22692,13743.92
689,22700,13763.89
690,22708,13783.87
691,22712,13803.85
692,22720,13823.82
693,22732,13843.80
694,22732,13863.78
695,22724,13883.75
696,22704,13903.73
697,22680,13923.71
698,22648,13943.68
699,22624,13963.66
700,22604,13983.64
701,22592,14003.61
702,22580,14023.59
703,22576,14043.57
704,22572,14063.54
705,22576,14083.52
706,22576,14103.50
707,22572,14123.47
708,22568,14143.45
709,22568,14163.43
710,22564,14183.40
711,22560,14203.38
712,22552,14223.36
713,22548,14243.33
714,22544,14263.31
715,22548,14283.29
716,22552,14303.26
717,22552,14323.24
718,22556,14343.22
719,22560,14363.19
720,22568,14383.17
721,22572,14403.15
722,22576,14423.12
723,22580,14443.10
724,22580,14463.08
725,22584,14483.05
726,22592,14503.03
727,22600,14523.01
728,22604,14542.98
729,22608,14562.96
730,22620,14582.94
731,22624,14602.91
732,22628,14622.89
733,22636,14642.86
734,22644,14662.84
735,22648,14682.82
736,22656,14702.79
737,22668,14722.77
738,22672,14742.75
739,22664,14762.72
740,22636,14782.70
741,22612,14802.68
742,22576,14822.65
743,22544,14842.63
744,22524,14862.61
745,22504,14882.58
746,22492,14902.56
747,22480,14922.54
748,22480,14942.51
749,22464,14962.49
750,22460,14982.47
751,22456,15002.44
752,22452,15022.42
753,22452,15042.40
754,22448,15062.37
755,22444,15082.35
756,22440,15102.33
757,22436,15122.30
758,22432,15142.28
759,22432,15162.26
760,22432,15182.23
761,22436,15202.21
762,22440,15222.19
763,22444,15242.16
764,22448,15262.14
765,22452,15282.12
766,22456,15302.09
767,22460,15322.07
768,22460,15342.05
769,22468,15362.02
770,22476,15382.00
771,22484,15401.98
772,22488,15421.95
773,22496,15441.93
774,22504,15461.91
775,22508,15481.88
776,22512,15501.86
777,22520,15521.84
778,22528,15541.81
779,22536,15561.79
780,22548,15581.77
781,22556,15601.74
782,22568,15621.72
783,22580,15641.70
784,22588,15661.67
785,22600,15681.65
786,22612,15701.63
787,22620,15721.60
788,22624,15741.58
789,22616,15761.56
790,22596,15781.53
791,22560,15801.51
792,22524,15821.49
793,22488,15841.46
794,22464,15861.44
795,22444,15881.42
796,22428,15901.39
797,22416,15921.37
798,22404,15941.35
799,22396,15961.32
800,22388,15981.30
801,22384,16001.28
802,22380,16021.25
803,22380,16041.23
804,22376,16061.21
805,22368,16081.18
806,22364,16101.16
807,22360,16121.14
808,22356,16141.11
809,22356,16161.09
810,22348,16181.06
811,22348,16201.04
812,22356,16221.02
813,22356,16240.99
814,22360,16260.97
815,22368,16280.95
816,22372,16300.92
817,22380,16320.90
818,22384,16340.88
819,22392,16360.85
820,22396,16380.83
821,22404,16400.81
822,22408,16420.78
823,22416,16440.76
824,22424,16460.74
825,22432,16480.71
826,22444,16500.69
827,22452,16520.67
828,22460,16540.64
829,22468,16560.62
830,22480,16580.60
831,22488,16600.57
832,22500,16620.55
833,22508,16640.53
834,22520,16660.50
835,22524,16680.48
836,22524,16700.46
837,22504,16720.43
838,22476,16740.41
839,22440,16760.39
840,22408,16780.36
841,22380,16800.34
842,22364,16820.32
843,22356,16840.29
844,22344,16860.27
845,22344,16880.25
846,22340,16900.22
847,22336,16920.20
848,22340,16940.18
849,22336,16960.15
850,22336,16980.13
851,22332,17000.11
852,22328,17020.08
853,22324,17040.06
854,22316,17060.04
855,22312,17080.01
856,22308,17099.99
857,22308,17119.97
858,22316,17139.94
859,22316,17159.92
860,22324,17179.90
861,22332,17199.87
862,22336,17219.85
863,22340,17239.83
864,22344,17259.80
865,22352,17279.78
866,22360,17299.76
867,22368,17319.73
868,22376,17339.71
869,22380,17359.69
870,22392,17379.66
871,22396,17399.64
872,22404,17419.62
873,22412,17439.59
874,22424,17459.57
875,22428,17479.55
876,22440,17499.52
877,22448,17519.50
878,22452,17539.48
879,22448,17559.45
880,22424,17579.43
881,22388,17599.41
882,22352,17619.38
883,22316,17639.36
884,22284,17659.34
885,22268,17679.31
886,22256,17699.29
887,22244,17719.26
888,22236,17739.24
889,22232,17759.22
890,22224,17779.19
891,22220,17799.17
892,22220,17819.15
893,22220,17839.12
894,22216,17859.10
895,22212,17879.08
896,22204,17899.05
897,22200,17919.03
898,22196,17939.01
899,22196,17958.98
900,22196,17978.96
901,22204,17998.94
902,22204,18018.91
903,22216,18038.89
904,22220,18058.87
905,22232,18078.84
906,22232,18098.82
907,22244,18118.80
908,22248,18138.77
909,22256,18158.75
910,22264,18178.73
911,22276,18198.70
912,22284,18218.68
913,22292,18238.66
914,22300,18258.63
915,22312,18278.61
916,22320,18298.59
917,22328,18318.56
918,22340,18338.54
919,22348,18358.52
920,22360,18378.49
921,22372,18398.47
922,22384,18418.45
923,22384,18438.42
924,22360,18458.40
925,22332,18478.38
926,22292,18498.35
927,22248,18518.33
928,22216,18538.31
929,22192,18558.28
930,22172,18578.26
931,22160,18598.24
932,22152,18618.21
933,22140,18638.19
934,22132,18658.17
935,22124,18678.14
936,22120,18698.12
937,22120,18718.10
938,22116,18738.07
939,22108,18758.05
940,22108,18778.03
941,22104,18798.00
942,22100,18817.98
943,22096,18837.96
944,22100,18857.93
945,22100,18877.91
946,22104,18897.89
947,22108,18917.86
948,22120,18937.84
949,22124,18957.82
950,22132,18977.79
951,22140,18997.77
952,22148,19017.75
953,22152,19037.72
954,22164,19057.70
955,22176,19077.68
956,22184,19097.65
957,22192,19117.63
958,22204,19137.61
959,22212,19157.58
960,22220,19177.56
961,22232,19197.54
962,22244,19217.51
963,22256,19237.49
964,22268,19257.46
965,22284,19277.44
966,22296,19297.42
967,22304,19317.39
968,22320,19337.37
969,22328,19357.35
970,22340,19377.32
971,22352,19397.30
972,22364,19417.28
973,22372,19437.25
974,22364,19457.23
975,22340,19477.21
976,22304,19497.18
977,22264,19517.16
978,22224,19537.14
979,22188,19557.11
980,22168,19577.09
981,22152,19597.07
982,22144,19617.04
983,22128,19637.02
984,22120,19657.00
985,22116,19676.97
986,22112,19696.95
987,22108,19716.93
988,22108,19736.90
989,22108,19756.88
990,22104,19776.86
991,22104,19796.83
992,22092,19816.81
993,22096,19836.79
994,22092,19856.76
995,22096,19876.74
996,22100,19896.72
997,22112,19916.69
998,22120,19936.67
999,22132,19956.65
1000,22140,19976.62
1001,22152,19996.60
1002,22160,20016.58
1003,22172,20036.55
1004,22184,20056.53
1005,22192,20076.51
1006,22208,20096.48
1007,22216,20116.46
1008,22228,20136.44
1009,22236,20156.41
1010,22248,20176.39
1011,22264,20196.37
1012,22268,20216.34
1013,22280,20236.32
1014,22292,20256.30
1015,22304,20276.27
1016,22320,20296.25
1017,22332,20316.23
1018,22340,20336.20
1019,22356,20356.18
1020,22364,20376.16
1021,22364,20396.13
1022,22348,20416.11
1023,22320,20436.09
1024,22284,20456.06
1025,22248,20476.04
1026,22220,20496.02
1027,22200,20515.99
1028,22192,20535.97
1029,22188,20555.95
1030,22184,20575.92
1031,22188,20595.90
1032,22192,20615.88
1033,22192,20635.85
1034,22192,20655.83
1035,22196,20675.81
1036,22196,20695.78
1037,22196,20715.76
1038,22192,20735.74
1039,22192,20755.71
1040,22192,20775.69
1041,22196,20795.66
1042,22200,20815.64
1043,22208,20835.62
1044,22220,20855.59
1045,22232,20875.57
1046,22240,20895.55
1047,22248,20915.52
1048,22260,20935.50
1049,22268,20955.48
1050,22280,20975.45
1051,22292,20995.43
1052,22296,21015.41
1053,22304,21035.38
1054,22316,21055.36
1055,22328,21075.34
1056,22332,21095.31
1057,22344,21115.29
1058,22348,21135.27
1059,22364,21155.24
1060,22376,21175.22
1061,22384,21195.20
1062,22396,21215.17
1063,22408,21235.15
1064,22420,21255.13
1065,22428,21275.10
1066,22428,21295.08
1067,22408,21315.06
1068,22376,21335.03
1069,22336,21355.01
1070,22296,21374.99
1071,22264,21394.96
1072,22236,21414.94
1073,22220,21434.92
1074,22212,21454.89
1075,22204,21474.87
1076,22196,21494.85
1077,22192,21514.82
1078,22188,21534.80
1079,22188,21554.78
1080,22188,21574.75
1081,22188,21594.73
1082,22188,21614.71
1083,22188,21634.68
1084,22188,21654.66
1085,22188,21674.64
1086,22188,21694.61
1087,22192,21714.59
1088,22196,21734.57
1089,22204,21754.54
1090,22208,21774.52
1091,22220,21794.50
1092,22228,21814.47
1093,22240,21834.45
1094,22252,21854.43
1095,22260,21874.40
1096,22272,21894.38
1097,22284,21914.36
1098,22292,21934.33
1099,22300,21954.31
1100,22312,21974.29
1101,22324,21994.26
1102,22332,22014.24
1103,22340,22034.22
1104,22352,22054.19
1105,22364,22074.17
1106,22372,22094.15
1107,22384,22114.12
1108,22396,22134.10
1109,22404,22154.08
1110,22412,22174.05
1111,22408,22194.03
1112,22392,22214.01
1113,22364,22233.98
1114,22320,22253.96
1115,22280,22273.94
1116,22248,22293.91
1117,22220,22313.89
1118,22204,22333.86
1119,22192,22353.84
1120,22176,22373.82
1121,22168,22393.79
1122,22164,22413.77
1123,22160,22433.75
1124,22160,22453.72
1125,22160,22473.70
1126,22164,22493.68
1127,22164,22513.65
1128,22164,22533.63
1129,22160,22553.61
1130,22160,22573.58
1131,22164,22593.56
1132,22164,22613.54
1133,22172,22633.51
1134,22176,22653.49
1135,22184,22673.47
1136,22196,22693.44
1137,22204,22713.42
1138,22216,22733.40
1139,22228,22753.37
1140,22236,22773.35
1141,22244,22793.33
1142,22256,22813.30
1143,22264,22833.28
1144,22272,22853.26
1145,22284,22873.23
1146,22296,22893.21
1147,22304,22913.19
1148,22312,22933.16
1149,22324,22953.14
1150,22336,22973.12
1151,22348,22993.09
1152,22360,23013.07
1153,22368,23033.05
1154,22372,23053.02
1155,22384,23073.00
1156,22392,23092.98
1157,22400,23112.95
1158,22416,23132.93
1159,22424,23152.91
1160,22432,23172.88
1161,22432,23192.86
1162,22412,23212.84
1163,22380,23232.81
1164,22336,23252.79
1165,22292,23272.77
1166,22260,23292.74
1167,22236,23312.72
1168,22224,23332.70
1169,22220,23352.67
1170,22216,23372.65
1171,22216,23392.63
1172,22216,23412.60
1173,22216,23432.58
1174,22216,23452.56
1175,22216,23472.53
1176,22216,23492.51
1177,22212,23512.49
1178,22208,23532.46
1179,22208,23552.44
1180,22208,23572.42
1181,22204,23592.39
1182,22208,23612.37
1183,22216,23632.35
1184,22220,23652.32
1185,22228,23672.30
1186,22236,23692.28
1187,22244,23712.25
1188,22252,23732.23
1189,22264,23752.21
1190,22272,23772.18
1191,22280,23792.16
1192,22288,23812.14
1193,22300,23832.11
1194,22308,23852.09
1195,22312,23872.06
1196,22316,23892.04
1197,22320,23912.02
1198,22328,23931.99
1199,22332,23951.97
1200,22340,23971.95
1201,22348,23991.92
1202,22356,24011.90
1203,22356,24031.88
1204,22344,24051.85
1205,22312,24071.83
1206,22272,24091.81
1207,22236,24111.78
1208,22196,24131.76
1209,22168,24151.74
1210,22152,24171.71
1211,22144,24191.69
1212,22140,24211.67
1213,22136,24231.64
1214,22136,24251.62
1215,22136,24271.60
1216,22140,24291.57
1217,22144,24311.55
1218,22144,24331.53
1219,22144,24351.50
1220,22140,24371.48
1221,22140,24391.46
1222,22136,24411.43
1223,22140,24431.41
1224,22144,24451.39
1225,22152,24471.36
1226,22156,24491.34
1227,22168,24511.32
1228,22176,24531.29
1229,22188,24551.27
1230,22196,24571.25
1231,22212,24591.22
1232,22220,24611.20
1233,22228,24631.18
1234,22240,24651.15
1235,22248,24671.13
1236,22256,24691.11
1237,22272,24711.08
1238,22280,24731.06
1239,22292,24751.04
1240,22304,24771.01
1241,22312,24790.99
1242,22320,24810.97
1243,22332,24830.94
1244,22340,24850.92
1245,22352,24870.90
1246,22352,24890.87
1247,22336,24910.85
1248,22308,24930.83
1249,22264,24950.80
1250,22216,24970.78
1251,22172,24990.76
1252,22140,25010.73
1253,22124,25030.71
1254,22108,25050.69
1255,22096,25070.66
1256,22088,25090.64
1257,22080,25110.62
1258,22076,25130.59
1259,22076,25150.57
1260,22072,25170.55
1261,22080,25190.52
1262,22076,25210.50
1263,22076,25230.48
1264,22072,25250.45
1265,22072,25270.43
1266,22072,25290.41
1267,22072,25310.38
1268,22076,25330.36
1269,22084,25350.34
1270,22092,25370.31
1271,22100,25390.29
1272,22112,25410.26
1273,22124,25430.24
1274,22132,25450.22
1275,22144,25470.19
1276,22156,25490.17
1277,22160,25510.15
1278,22168,25530.12
1279,22180,25550.10
1280,22196,25570.08
1281,22200,25590.05
1282,22212,25610.03
1283,22224,25630.01
1284,22232,25649.98
1285,22240,25669.96
1286,22252,25689.94
1287,22260,25709.91
1288,22268,25729.89
1289,22280,25749.87
1290,22288,25769.84
1291,22296,25789.82
1292,22300,25809.80
1293,22288,25829.77
1294,22260,25849.75
1295,22216,25869.73
1296,22168,25889.70
1297,22124,25909.68
1298,22092,25929.66
1299,22068,25949.63
1300,22052,25969.61
1301,22044,25989.59
1302,22040,26009.56
1303,22040,26029.54
1304,22040,26049.52
1305,22044,26069.49
1306,22044,26089.47
1307,22044,26109.45
1308,22040,26129.42
1309,22036,26149.40
1310,22032,26169.38
1311,22028,26189.35
1312,22028,26209.33
1313,22024,26229.31
1314,22032,26249.28
1315,22032,26269.26
1316,22040,26289.24
1317,22044,26309.21
1318,22056,26329.19
1319,22064,26349.17
1320,22076,26369.14
1321,22084,26389.12
1322,22088,26409.10
1323,22100,26429.07
1324,22108,26449.05
1325,22120,26469.03
1326,22128,26489.00
1327,22140,26508.98
1328,22144,26528.96
1329,22152,26548.93
1330,22160,26568.91
1331,22168,26588.89
1332,22176,26608.86
1333,22184,26628.84
1334,22192,26648.82
1335,22192,26668.79
1336,22180,26688.77
1337,22156,26708.75
1338,22116,26728.72
1339,22068,26748.70
1340,22024,26768.68
1341,21988,26788.65
1342,21968,26808.63
1343,21952,26828.61
1344,21944,26848.58
1345,21936,26868.56
1346,21940,26888.54
1347,21936,26908.51
1348,21940,26928.49
1349,21944,26948.46
1350,21944,26968.44
1351,21940,26988.42
1352,21944,27008.39
1353,21940,27028.37
1354,21932,27048.35
1355,21932,27068.32
1356,21936,27088.30
1357,21944,27108.28
1358,21948,27128.25
1359,21956,27148.23
1360,21968,27168.21
1361,21980,27188.18
1362,21992,27208.16
1363,22000,27228.14
1364,22012,27248.11
1365,22020,27268.09
1366,22028,27288.07
1367,22040,27308.04
1368,22052,27328.02
1369,22060,27348.00
1370,22076,27367.97
1371,22088,27387.95
1372,22096,27407.93
1373,22100,27427.90
1374,22112,27447.88
1375,22124,27467.86
1376,22132,27487.83
1377,22144,27507.81
1378,22156,27527.79
1379,22164,27547.76
1380,22176,27567.74
1381,22188,27587.72
1382,22196,27607.69
1383,22192,27627.67
1384,22156,27647.65
1385,22112,27667.62
1386,22060,27687.60
1387,22012,27707.58
1388,21972,27727.55
1389,21940,27747.53
1390,21928,27767.51
1391,21920,27787.48
1392,21912,27807.46
1393,21904,27827.44
1394,21900,27847.41
1395,21892,27867.39
1396,21892,27887.37
1397,21892,27907.34
1398,21896,27927.32
1399,21896,27947.30
1400,21896,27967.27
1401,21900,27987.25
1402,21900,28007.23
1403,21900,28027.20
1404,21904,28047.18
1405,21908,28067.16
1406,21916,28087.13
1407,21924,28107.11
1408,21936,28127.09
1409,21948,28147.06
1410,21964,28167.04
1411,21972,28187.02
1412,21980,28206.99
1413,21992,28226.97
1414,22008,28246.95
1415,22016,28266.92
1416,22028,28286.90
1417,22036,28306.88
1418,22040,28326.85
1419,22048,28346.83
1420,22060,28366.81
1421,22064,28386.78
1422,22080,28406.76
1423,22092,28426.74
1424,22104,28446.71
1425,22116,28466.69
1426,22124,28486.66
1427,22136,28506.64
1428,22152,28526.62
1429,22164,28546.59
1430,22176,28566.57
1431,22188,28586.55
1432,22196,28606.52
1433,22188,28626.50
1434,22156,28646.48
1435,22112,28666.45
1436,22056,28686.43
1437,22004,28706.41
1438,21968,28726.38
1439,21944,28746.36
1440,21928,28766.34
1441,21920,28786.31
1442,21912,28806.29
1443,21908,28826.27
1444,21904,28846.24
1445,21904,28866.22
1446,21900,28886.20
1447,21896,28906.17
1448,21896,28926.15
1449,21888,28946.13
1450,21880,28966.10
1451,21876,28986.08
1452,21868,29006.06
1453,21868,29026.03
1454,21868,29046.01
1455,21868,29065.99
1456,21880,29085.96
1457,21884,29105.94
1458,21896,29125.92
1459,21904,29145.89
1460,21908,29165.87
1461,21920,29185.85
1462,21928,29205.82
1463,21940,29225.80
1464,21944,29245.78
1465,21952,29265.75
1466,21960,29285.73
1467,21964,29305.71
1468,21972,29325.68
1469,21980,29345.66
1470,21992,29365.64
1471,22000,29385.61
1472,22012,29405.59
1473,22024,29425.57
1474,22032,29445.54
1475,22040,29465.52
1476,22052,29485.50
1477,22068,29505.47
1478,22076,29525.45
1479,22076,29545.43
1480,22056,29565.40
1481,22020,29585.38
1482,21960,29605.36
1483,21912,29625.33
1484,21864,29645.31
1485,21832,29665.29
1486,21812,29685.26
1487,21800,29705.24
1488,21788,29725.22
1489,21780,29745.19
1490,21776,29765.17
1491,21772,29785.15
1492,21772,29805.12
1493,21772,29825.10
1494,21772,29845.08
1495,21768,29865.05
1496,21768,29885.03
1497,21764,29905.01
1498,21764,29924.98
1499,21760,29944.96
1500,21764,29964.94
1501,21768,29984.91
1502,21776,30004.89
1503,21788,30024.86
1504,21800,30044.84
1505,21812,30064.82
1506,21820,30084.79
1507,21832,30104.77
1508,21840,30124.75
1509,21852,30144.72
1510,21864,30164.70
1511,21872,30184.68
1512,21884,30204.65
1513,21896,30224.63
1514,21904,30244.61
1515,21916,30264.58
1516,21924,30284.56
1517,21940,30304.54
1518,21956,30324.51
1519,21968,30344.49
1520,21972,30364.47
1521,21984,30384.44
1522,21996,30404.42
1523,22012,30424.40
1524,22028,30444.37
1525,22048,30464.35
1526,22060,30484.33
1527,22064,30504.30
1528,22048,30524.28
1529,22008,30544.26
1530,21952,30564.23
1531,21904,30584.21
1532,21856,30604.19
1533,21816,30624.16
1534,21792,30644.14
1535,21776,30664.12
1536,21768,30684.09
1537,21764,30704.07
1538,21760,30724.05
1539,21760,30744.02
1540,21760,30764.00
1541,21756,30783.98
1542,21760,30803.95
1543,21756,30823.93
1544,21752,30843.91
1545,21752,30863.88
1546,21752,30883.86
1547,21752,30903.84
1548,21756,30923.81
1549,21756,30943.79
1550,21764,30963.77
1551,21776,30983.74
1552,21788,31003.72
1553,21796,31023.70
1554,21808,31043.67
1555,21816,31063.65
1556,21832,31083.63
1557,21840,31103.60
1558,21852,31123.58
1559,21860,31143.56
1560,21872,31163.53
1561,21884,31183.51
1562,21896,31203.49
1563,21908,31223.46
1564,21912,31243.44
1565,21924,31263.42
1566,21932,31283.39
1567,21940,31303.37
1568,21952,31323.35
1569,21964,31343.32
1570,21976,31363.30
1571,21992,31383.28
1572,22000,31403.25
1573,21992,31423.23
1574,21968,31443.21
1575,21924,31463.18
1576,21872,31483.16
1577,21824,31503.14
1578,21784,31523.11
1579,21756,31543.09
1580,21736,31563.06
1581,21732,31583.04
1582,21732,31603.02
1583,21732,31622.99
1584,21732,31642.97
1585,21736,31662.95
1586,21732,31682.92
1587,21732,31702.90
1588,21724,31722.88
1589,21724,31742.85
1590,21716,31762.83
1591,21712,31782.81
1592,21712,31802.78
1593,21712,31822.76
1594,21712,31842.74
1595,21720,31862.71
1596,21732,31882.69
1597,21740,31902.67
1598,21752,31922.64
1599,21764,31942.62
1600,21772,31962.60
1601,21784,31982.57
1602,21796,32002.55
1603,21800,32022.53
1604,21816,32042.50
1605,21828,32062.48
1606,21840,32082.46
1607,21848,32102.43
1608,21860,32122.41
1609,21864,32142.39
1610,21880,32162.36
1611,21892,32182.34
1612,21900,32202.32
1613,21912,32222.29
1614,21924,32242.27
1615,21924,32262.25
1616,21900,32282.22
1617,21856,32302.20
1618,21800,32322.18
1619,21744,32342.15
1620,21700,32362.13
1621,21664,32382.11
1622,21640,32402.08
1623,21628,32422.06
1624,21620,32442.04
1625,21612,32462.01
1626,21608,32481.99
1627,21608,32501.97
1628,21608,32521.94
1629,21612,32541.92
1630,21612,32561.90
1631,21608,32581.87
1632,21608,32601.85
1633,21608,32621.83
1634,21604,32641.80
1635,21604,32661.78
1636,21612,32681.76
1637,21616,32701.73
1638,21624,32721.71
1639,21636,32741.69
1640,21648,32761.66
1641,21660,32781.64
1642,21676,32801.62
1643,21684,32821.59
1644,21696,32841.57
1645,21708,32861.55
1646,21724,32881.52
1647,21732,32901.50
1648,21744,32921.48
1649,21760,32941.45
1650,21772,32961.43
1651,21784,32981.41
1652,21800,33001.38
1653,21812,33021.36
1654,21820,33041.34
1655,21836,33061.31
1656,21848,33081.29
1657,21856,33101.26
1658,21844,33121.24
1659,21812,33141.22
1660,21760,33161.19
1661,21708,33181.17
1662,21656,33201.15
1663,21612,33221.12
1664,21588,33241.10
1665,21572,33261.08
1666,21556,33281.05
1667,21552,33301.03
1668,21548,33321.01
1669,21548,33340.98
1670,21548,33360.96
1671,21552,33380.94
1672,21556,33400.91
1673,21556,33420.89
1674,21556,33440.87
1675,21556,33460.84
1676,21556,33480.82
1677,21556,33500.80
1678,21556,33520.77
1679,21564,33540.75
1680,21572,33560.73
1681,21580,33580.70
1682,21596,33600.68
1683,21608,33620.66
1684,21620,33640.63
1685,21636,33660.61
1686,21652,33680.59
1687,21664,33700.56
1688,21672,33720.54
1689,21688,33740.52
1690,21700,33760.49
1691,21712,33780.47
1692,21716,33800.45
1693,21732,33820.42
1694,21740,33840.40
1695,21756,33860.38
1696,21764,33880.35
1697,21780,33900.33
1698,21792,33920.31
1699,21804,33940.28
1700,21816,33960.26
1701,21812,33980.24
1702,21784,34000.21
1703,21736,34020.19
1704,21676,34040.17
1705,21620,34060.14
1706,21580,34080.12
1707,21552,34100.10
1708,21532,34120.07
1709,21528,34140.05
1710,21520,34160.03
1711,21516,34180.00
1712,21520,34199.98
1713,21524,34219.96
1714,21524,34239.93
1715,21528,34259.91
1716,21528,34279.89
1717,21524,34299.86
1718,21524,34319.84
1719,21520,34339.82
1720,21524,34359.79
1721,21524,34379.77
1722,21528,34399.75
1723,21532,34419.72
1724,21544,34439.70
1725,21560,34459.68
1726,21572,34479.65
1727,21588,34499.63
1728,21600,34519.61
1729,21612,34539.58
1730,21624,34559.56
1731,21632,34579.54
1732,21640,34599.51
1733,21652,34619.49
1734,21664,34639.46
1735,21668,34659.44
1736,21676,34679.42
1737,21684,34699.39
1738,21700,34719.37
1739,21708,34739.35
1740,21720,34759.32
1741,21724,34779.30
1742,21704,34799.28
1743,21660,34819.25
1744,21600,34839.23
1745,21536,34859.21
1746,21488,34879.18
1747,21448,34899.16
1748,21428,34919.14
1749,21420,34939.11
1750,21408,34959.09
1751,21408,34979.07
1752,21408,34999.04
1753,21404,35019.02
1754,21412,35039.00
1755,21416,35058.97
1756,21420,35078.95
1757,21420,35098.93
1758,21420,35118.90
1759,21420,35138.88
1760,21420,35158.86
1761,21420,35178.83
1762,21428,35198.81
1763,21432,35218.79
1764,21448,35238.76
1765,21460,35258.74
1766,21472,35278.72
1767,21488,35298.69
1768,21500,35318.67
1769,21512,35338.65
1770,21528,35358.62
1771,21544,35378.60
1772,21560,35398.58
1773,21572,35418.55
1774,21584,35438.53
1775,21600,35458.51
1776,21612,35478.48
1777,21620,35498.46
1778,21632,35518.44
1779,21644,35538.41
1780,21656,35558.39
1781,21668,35578.37
1782,21680,35598.34
1783,21684,35618.32
1784,21668,35638.30
1785,21624,35658.27
1786,21564,35678.25
1787,21500,35698.23
1788,21440,35718.20
1789,21400,35738.18
1790,21372,35758.16
1791,21356,35778.13
1792,21344,35798.11
1793,21336,35818.09
1794,21336,35838.06
1795,21332,35858.04
1796,21332,35878.02
1797,21336,35897.99
1798,21336,35917.97
1799,21340,35937.95
1800,21344,35957.92
1801,21344,35977.90
1802,21344,35997.88
1803,21344,36017.85
1804,21352,36037.83
1805,21360,36057.81
1806,21368,36077.78
1807,21384,36097.76
1808,21400,36117.74
1809,21416,36137.71
1810,21428,36157.69
1811,21440,36177.66
1812,21456,36197.64
1813,21468,36217.62
1814,21488,36237.59
1815,21504,36257.57
1816,21520,36277.55
1817,21536,36297.52
1818,21548,36317.50
1819,21556,36337.48
1820,21572,36357.45
1821,21584,36377.43
1822,21596,36397.41
1823,21608,36417.38
1824,21620,36437.36
1825,21636,36457.34
1826,21652,36477.31
1827,21660,36497.29
1828,21660,36517.27
1829,21628,36537.24
1830,21576,36557.22
1831,21508,36577.20
1832,21444,36597.17
1833,21400,36617.15
1834,21364,36637.13
1835,21348,36657.10
1836,21340,36677.08
1837,21336,36697.06
1838,21332,36717.03
1839,21332,36737.01
1840,21332,36756.99
1841,21340,36776.96
1842,21340,36796.94
1843,21344,36816.92
1844,21344,36836.89
1845,21344,36856.87
1846,21344,36876.85
1847,21344,36896.82
1848,21348,36916.80
1849,21360,36936.78
1850,21364,36956.75
1851,21376,36976.73
1852,21392,36996.71
1853,21404,37016.68
1854,21420,37036.66
1855,21432,37056.64
1856,21448,37076.61
1857,21464,37096.59
1858,21476,37116.57
1859,21492,37136.54
1860,21504,37156.52
1861,21520,37176.50
1862,21532,37196.47
1863,21544,37216.45
1864,21556,37236.43
1865,21568,37256.40
1866,21576,37276.38
1867,21588,37296.36
1868,21600,37316.33
1869,21616,37336.31
1870,21620,37356.29
1871,21600,37376.26
1872,21556,37396.24
1873,21500,37416.22
1874,21440,37436.19
1875,21396,37456.17
1876,21364,37476.15
1877,21348,37496.12
1878,21336,37516.10
1879,21332,37536.08
1880,21332,37556.05
1881,21332,37576.03
1882,21336,37596.01
1883,21344,37615.98
1884,21352,37635.96
1885,21356,37655.94
1886,21360,37675.91
1887,21364,37695.89
1888,21364,37715.86
1889,21364,37735.84
1890,21372,37755.82
1891,21376,37775.79
1892,21392,37795.77
1893,21404,37815.75
1894,21420,37835.72
1895,21436,37855.70
1896,21456,37875.68
1897,21472,37895.65
1898,21488,37915.63
1899,21504,37935.61
1900,21520,37955.58
1901,21540,37975.56
1902,21552,37995.54
1903,21572,38015.51
1904,21588,38035.49
1905,21600,38055.47
1906,21616,38075.44
1907,21632,38095.42
1908,21644,38115.40
1909,21660,38135.37
1910,21672,38155.35
1911,21684,38175.33
1912,21704,38195.30
1913,21716,38215.28
1914,21720,38235.26
1915,21704,38255.23
1916,21660,38275.21
1917,21596,38295.19
1918,21532,38315.16
1919,21476,38335.14
1920,21436,38355.12
1921,21412,38375.09
1922,21396,38395.07
1923,21388,38415.05
1924,21384,38435.02
1925,21376,38455.00
1926,21376,38474.98
1927,21376,38494.95
1928,21384,38514.93
1929,21384,38534.91
1930,21392,38554.88
1931,21392,38574.86
1932,21392,38594.84
1933,21392,38614.81
1934,21396,38634.79
1935,21404,38654.77
1936,21416,38674.74
1937,21432,38694.72
1938,21440,38714.70
1939,21456,38734.67
1940,21476,38754.65
1941,21488,38774.63
1942,21504,38794.60
1943,21520,38814.58
1944,21536,38834.56
1945,21556,38854.53
1946,21568,38874.51
1947,21584,38894.49
1948,21600,38914.46
1949,21616,38934.44
1950,21628,38954.42
1951,21644,38974.39
1952,21656,38994.37
1953,21664,39014.35
1954,21680,39034.32
1955,21692,39054.30
1956,21708,39074.28
1957,21720,39094.25
1958,21736,39114.23
1959,21744,39134.21
1960,21732,39154.18
1961,21692,39174.16
1962,21636,39194.14
1963,21576,39214.11
1964,21524,39234.09
1965,21480,39254.06
1966,21456,39274.04
1967,21440,39294.02
1968,21436,39313.99
1969,21432,39333.97
1970,21432,39353.95
1971,21432,39373.92
1972,21436,39393.90
1973,21440,39413.88
1974,21444,39433.85
1975,21448,39453.83
1976,21448,39473.81
1977,21448,39493.78
1978,21452,39513.76
1979,21448,39533.74
1980,21456,39553.71
1981,21464,39573.69
1982,21476,39593.67
1983,21484,39613.64
1984,21496,39633.62
1985,21512,39653.60
1986,21524,39673.57
1987,21544,39693.55
1988,21556,39713.53
1989,21568,39733.50
1990,21580,39753.48
1991,21592,39773.46
1992,21608,39793.43
1993,21616,39813.41
1994,21628,39833.39
1995,21636,39853.36
1996,21648,39873.34
1997,21664,39893.32
1998,21676,39913.29
1999,21688,39933.27
2000,21700,39953.25
2001,21712,39973.22
2002,21720,39993.20
2003,21708,40013.18
2004,21672,40033.15
2005,21620,40053.13
2006,21564,40073.11
2007,21508,40093.08
2008,21472,40113.06
2009,21448,40133.04
2010,21436,40153.01
2011,21432,40172.99
2012,21432,40192.97
2013,21436,40212.94
2014,21440,40232.92
2015,21448,40252.90
2016,21452,40272.87
2017,21456,40292.85
2018,21456,40312.83
2019,21456,40332.80
2020,21456,40352.78
2021,21456,40372.76
2022,21460,40392.73
2023,21468,40412.71
2024,21476,40432.69
2025,21484,40452.66
2026,21496,40472.64
2027,21508,40492.62
2028,21520,40512.59
2029,21540,40532.57
2030,21552,40552.55
2031,21568,40572.52
2032,21584,40592.50
2033,21600,40612.48
2034,21612,40632.45
2035,21624,40652.43
2036,21636,40672.41
2037,21648,40692.38
2038,21664,40712.36
2039,21672,40732.34
2040,21684,40752.31
2041,21696,40772.29
2042,21712,40792.26
2043,21720,40812.24
2044,21708,40832.22
2045,21676,40852.19
2046,21624,40872.17
2047,21560,40892.15
2048,21500,40912.12
2049,21456,40932.10
2050,21428,40952.08
2051,21412,40972.05
2052,21400,40992.03
2053,21396,41012.01
2054,21396,41031.98
2055,21396,41051.96
2056,21400,41071.94
2057,21404,41091.91
2058,21408,41111.89
2059,21412,41131.87
2060,21412,41151.84
2061,21412,41171.82
2062,21412,41191.80
2063,21416,41211.77
2064,21420,41231.75
2065,21428,41251.73
2066,21440,41271.70
2067,21452,41291.68
2068,21464,41311.66
2069,21480,41331.63
2070,21492,41351.61
2071,21508,41371.59
2072,21524,41391.56
2073,21540,41411.54
2074,21556,41431.52
2075,21572,41451.49
2076,21584,41471.47
2077,21596,41491.45
2078,21612,41511.42
2079,21624,41531.40
2080,21636,41551.38
2081,21648,41571.35
2082,21664,41591.33
2083,21672,41611.31
2084,21684,41631.28
2085,21676,41651.26
2086,21640,41671.24
2087,21592,41691.21
2088,21536,41711.19
2089,21480,41731.17
2090,21436,41751.14
2091,21404,41771.12
2092,21392,41791.10
2093,21384,41811.07
2094,21380,41831.05
2095,21384,41851.03
2096,21388,41871.00
2097,21392,41890.98
2098,21404,41910.96
2099,21404,41930.93
2100,21408,41950.91
2101,21408,41970.89
2102,21408,41990.86
2103,21408,42010.84
2104,21412,42030.82
2105,21420,42050.79
2106,21428,42070.77
2107,21440,42090.75
2108,21456,42110.72
2109,21464,42130.70
2110,21484,42150.68
2111,21496,42170.65
2112,21508,42190.63
2113,21524,42210.61
2114,21544,42230.58
2115,21556,42250.56
2116,21572,42270.54
2117,21588,42290.51
2118,21604,42310.49
2119,21616,42330.46
2120,21628,42350.44
2121,21636,42370.42
2122,21648,42390.39
2123,21664,42410.37
2124,21676,42430.35
2125,21688,42450.32
2126,21700,42470.30
2127,21692,42490.28
2128,21656,42510.25
2129,21604,42530.23
2130,21548,42550.21
2131,21492,42570.18
2132,21444,42590.16
2133,21420,42610.14
2134,21404,42630.11
2135,21396,42650.09
2136,21392,42670.07
2137,21396,42690.04
2138,21404,42710.02
2139,21408,42730.00
2140,21416,42749.97
2141,21420,42769.95
2142,21416,42789.93
2143,21416,42809.90
2144,21408,42829.88
2145,21412,42849.86
2146,21408,42869.83
2147,21412,42889.81
2148,21420,42909.79
2149,21432,42929.76
2150,21440,42949.74
2151,21460,42969.72
2152,21468,42989.69
2153,21480,43009.67
2154,21488,43029.65
2155,21504,43049.62
2156,21512,43069.60
2157,21524,43089.58
2158,21536,43109.55
2159,21544,43129.53
2160,21560,43149.51
2161,21572,43169.48
2162,21580,43189.46
2163,21580,43209.44
2164,21560,43229.41
2165,21516,43249.39
2166,21460,43269.37
2167,21400,43289.34
2168,21352,43309.32
2169,21320,43329.30
2170,21300,43349.27
2171,21292,43369.25
2172,21288,43389.23
2173,21288,43409.20
2174,21296,43429.18
2175,21300,43449.16
2176,21304,43469.13
2177,21308,43489.11
2178,21308,43509.09
2179,21308,43529.06
2180,21304,43549.04
2181,21304,43569.02
2182,21308,43588.99
2183,21316,43608.97
2184,21324,43628.95
2185,21332,43648.92
2186,21344,43668.90
2187,21360,43688.88
2188,21372,43708.85
2189,21388,43728.83
2190,21404,43748.81
2191,21420,43768.78
2192,21436,43788.76
2193,21452,43808.74
2194,21464,43828.71
2195,21484,43848.69
2196,21496,43868.66
2197,21508,43888.64
2198,21524,43908.62
2199,21532,43928.59
2200,21528,43948.57
2201,21496,43968.55
2202,21440,43988.52
2203,21376,44008.50
2204,21316,44028.48
2205,21272,44048.45
2206,21252,44068.43
2207,21236,44088.41
2208,21228,44108.38
2209,21228,44128.36
2210,21220,44148.34
2211,21220,44168.31
2212,21224,44188.29
2213,21228,44208.27
2214,21228,44228.24
2215,21232,44248.22
2216,21228,44268.20
2217,21224,44288.17
2218,21228,44308.15
2219,21228,44328.13
2220,21228,44348.10
2221,21236,44368.08
2222,21248,44388.06
2223,21260,44408.03
2224,21268,44428.01
2225,21284,44447.99
2226,21308,44467.96
2227,21324,44487.94
2228,21340,44507.92
2229,21356,44527.89
2230,21372,44547.87
2231,21388,44567.85
2232,21400,44587.82
2233,21416,44607.80
2234,21432,44627.78
2235,21448,44647.75
2236,21452,44667.73
2237,21436,44687.71
2238,21388,44707.68
2239,21336,44727.66
2240,21280,44747.64
2241,21232,44767.61
2242,21200,44787.59
2243,21180,44807.57
2244,21176,44827.54
2245,21176,44847.52
2246,21176,44867.50
2247,21184,44887.47
2248,21196,44907.45
2249,21204,44927.43
2250,21208,44947.40
2251,21212,44967.38
2252,21212,44987.36
2253,21212,45007.33
2254,21208,45027.31
2255,21208,45047.29
2256,21208,45067.26
2257,21216,45087.24
2258,21228,45107.22
2259,21240,45127.19
2260,21252,45147.17
2261,21276,45167.15
2262,21288,45187.12
2263,21304,45207.10
2264,21320,45227.08
2265,21332,45247.05
2266,21348,45267.03
2267,21360,45287.01
2268,21376,45306.98
2269,21392,45326.96
2270,21408,45346.94
2271,21416,45366.91
2272,21428,45386.89
2273,21420,45406.86
2274,21384,45426.84
2275,21332,45446.82
2276,21276,45466.79
2277,21224,45486.77
2278,21192,45506.75
2279,21176,45526.72
2280,21168,45546.70
2281,21172,45566.68
2282,21176,45586.65
2283,21184,45606.63
2284,21196,45626.61
2285,21204,45646.58
2286,21208,45666.56
2287,21216,45686.54
2288,21216,45706.51
2289,21212,45726.49
2290,21212,45746.47
2291,21212,45766.44
2292,21216,45786.42
2293,21224,45806.40
2294,21236,45826.37
2295,21244,45846.35
2296,21256,45866.33
2297,21268,45886.30
2298,21284,45906.28
2299,21296,45926.26
2300,21312,45946.23
2301,21324,45966.21
2302,21336,45986.19
2303,21344,46006.16
2304,21356,46026.14
2305,21364,46046.12
2306,21376,46066.09
2307,21388,46086.07
2308,21388,46106.05
2309,21368,46126.02
2310,21320,46146.00
2311,21264,46165.98
2312,21204,46185.95
2313,21160,46205.93
2314,21132,46225.91
2315,21120,46245.88
2316,21116,46265.86
2317,21116,46285.84
2318,21120,46305.81
2319,21132,46325.79
2320,21140,46345.77
2321,21148,46365.74
2322,21156,46385.72
2323,21164,46405.70
2324,21164,46425.67
2325,21168,46445.65
2326,21164,46465.63
2327,21168,46485.60
2328,21176,46505.58
2329,21184,46525.56
2330,21200,46545.53
2331,21212,46565.51
2332,21232,46585.49
2333,21248,46605.46
2334,21264,46625.44
2335,21280,46645.42
2336,21296,46665.39
2337,21312,46685.37
2338,21324,46705.35
2339,21332,46725.32
2340,21348,46745.30
2341,21360,46765.28
2342,21376,46785.25
2343,21388,46805.23
2344,21404,46825.21
2345,21412,46845.18
2346,21400,46865.16
2347,21356,46885.14
2348,21292,46905.11
2349,21224,46925.09
2350,21168,46945.06
2351,21124,46965.04
2352,21100,46985.02
2353,21092,47004.99
2354,21088,47024.97
2355,21088,47044.95
2356,21088,47064.92
2357,21092,47084.90
2358,21100,47104.88
2359,21108,47124.85
2360,21116,47144.83
2361,21124,47164.81
2362,21124,47184.78
2363,21128,47204.76
2364,21132,47224.74
2365,21136,47244.71
2366,21144,47264.69
2367,21156,47284.67
2368,21172,47304.64
2369,21188,47324.62
2370,21200,47344.60
2371,21216,47364.57
2372,21232,47384.55
2373,21248,47404.53
2374,21268,47424.50
2375,21284,47444.48
2376,21304,47464.46
2377,21320,47484.43
2378,21332,47504.41
2379,21348,47524.39
2380,21360,47544.36
2381,21376,47564.34
2382,21388,47584.32
2383,21400,47604.29
2384,21416,47624.27
2385,21428,47644.25
2386,21444,47664.22
2387,21460,47684.20
2388,21456,47704.18
2389,21424,47724.15
2390,21368,47744.13
2391,21296,47764.11
2392,21224,47784.08
2393,21176,47804.06
2394,21144,47824.04
2395,21128,47844.01
2396,21120,47863.99
2397,21120,47883.97
2398,21120,47903.94
2399,21128,47923.92
2400,21132,47943.90
2401,21136,47963.87
2402,21148,47983.85
2403,21152,48003.83
2404,21156,48023.80
2405,21156,48043.78
2406,21160,48063.76
2407,21164,48083.73
2408,21168,48103.71
2409,21180,48123.69
2410,21192,48143.66
2411,21208,48163.64
2412,21224,48183.62
2413,21240,48203.59
2414,21256,48223.57
2415,21272,48243.55
2416,21292,48263.52
2417,21300,48283.50
2418,21316,48303.48
2419,21336,48323.45
2420,21348,48343.43
2421,21364,48363.41
2422,21380,48383.38
2423,21396,48403.36
2424,21404,48423.34
2425,21420,48443.31
2426,21436,48463.29
2427,21448,48483.26
2428,21460,48503.24
2429,21476,48523.22
2430,21492,48543.19
2431,21504,48563.17
2432,21504,48583.15
2433,21476,48603.12
2434,21424,48623.10
2435,21360,48643.08
2436,21300,48663.05
2437,21248,48683.03
2438,21216,48703.01
2439,21204,48722.98
2440,21200,48742.96
2441,21208,48762.94
2442,21212,48782.91
2443,21224,48802.89
2444,21236,48822.87
2445,21244,48842.84
2446,21252,48862.82
2447,21256,48882.80
2448,21256,48902.77
2449,21252,48922.75
2450,21252,48942.73
2451,21248,48962.70
2452,21256,48982.68
2453,21264,49002.66
2454,21272,49022.63
2455,21284,49042.61
2456,21300,49062.59
2457,21316,49082.56
2458,21332,49102.54
2459,21348,49122.52
2460,21360,49142.49
2461,21372,49162.47
2462,21388,49182.45
2463,21404,49202.42
2464,21420,49222.40
2465,21436,49242.38
2466,21452,49262.35
2467,21460,49282.33
2468,21476,49302.31
2469,21484,49322.28
2470,21500,49342.26
2471,21512,49362.24
2472,21528,49382.21
2473,21528,49402.19
2474,21496,49422.17
2475,21452,49442.14
2476,21384,49462.12
2477,21320,49482.10
2478,21264,49502.07
2479,21232,49522.05
2480,21212,49542.03
2481,21204,49562.00
2482,21200,49581.98
2483,21204,49601.96
2484,21208,49621.93
2485,21216,49641.91
2486,21228,49661.89
2487,21232,49681.86
2488,21240,49701.84
2489,21244,49721.82
2490,21248,49741.79
2491,21248,49761.77
2492,21248,49781.75
2493,21256,49801.72
2494,21264,49821.70
2495,21272,49841.68
2496,21288,49861.65
2497,21304,49881.63
2498,21324,49901.61
2499,21340,49921.58
2500,21360,49941.56
2501,21372,49961.54
2502,21388,49981.51
2503,21408,50001.49
2504,21420,50021.46
2505,21436,50041.44
2506,21452,50061.42
2507,21468,50081.39
2508,21484,50101.37
2509,21496,50121.35
2510,21512,50141.32
2511,21524,50161.30
2512,21540,50181.28
2513,21552,50201.25
2514,21568,50221.23
2515,21572,50241.21
2516,21556,50261.18
2517,21516,50281.16
2518,21452,50301.14
2519,21380,50321.11
2520,21320,50341.09
2521,21272,50361.07
2522,21240,50381.04
2523,21228,50401.02
2524,21220,50421.00
2525,21220,50440.97
2526,21224,50460.95
2527,21228,50480.93
2528,21232,50500.90
2529,21240,50520.88
2530,21248,50540.86
2531,21252,50560.83
2532,21252,50580.81
2533,21256,50600.79
2534,21252,50620.76
2535,21256,50640.74
2536,21264,50660.72
2537,21276,50680.69
2538,21284,50700.67
2539,21296,50720.65
2540,21312,50740.62
2541,21328,50760.60
2542,21348,50780.58
2543,21364,50800.55
2544,21384,50820.53
2545,21404,50840.51
2546,21420,50860.48
2547,21432,50880.46
2548,21448,50900.44
2549,21464,50920.41
2550,21480,50940.39
2551,21496,50960.37
2552,21512,50980.34
2553,21528,51000.32
2554,21544,51020.30
2555,21560,51040.27
2556,21576,51060.25
2557,21592,51080.23
2558,21604,51100.20
2559,21596,51120.18
2560,21560,51140.16
2561,21500,51160.13
2562,21432,51180.11
2563,21368,51200.09
2564,21316,51220.06
2565,21284,51240.04
2566,21272,51260.02
2567,21264,51279.99
2568,21272,51299.97
2569,21276,51319.95
2570,21284,51339.92
2571,21296,51359.90
2572,21304,51379.88
2573,21308,51399.85
2574,21312,51419.83
2575,21316,51439.81
2576,21308,51459.78
2577,21308,51479.76
2578,21308,51499.74
2579,21312,51519.71
2580,21320,51539.69
2581,21332,51559.66
2582,21348,51579.64
2583,21360,51599.62
2584,21376,51619.59
2585,21392,51639.57
2586,21412,51659.55
2587,21428,51679.52
2588,21444,51699.50
2589,21464,51719.48
2590,21476,51739.45
2591,21488,51759.43
2592,21500,51779.41
2593,21516,51799.38
2594,21532,51819.36
2595,21540,51839.34
2596,21560,51859.31
2597,21572,51879.29
2598,21580,51899.27
2599,21560,51919.24
2600,21516,51939.22
2601,21456,51959.20
2602,21396,51979.17
2603,21344,51999.15
2604,21304,52019.13
2605,21280,52039.10
2606,21276,52059.08
2607,21276,52079.06
2608,21284,52099.03
2609,21300,52119.01
2610,21312,52138.99
2611,21328,52158.96
2612,21336,52178.94
2613,21340,52198.92
2614,21340,52218.89
2615,21332,52238.87
2616,21328,52258.85
2617,21324,52278.82
2618,21328,52298.80
2619,21332,52318.78
2620,21344,52338.75
2621,21356,52358.73
2622,21372,52378.71
2623,21388,52398.68
2624,21400,52418.66
2625,21416,52438.64
2626,21432,52458.61
2627,21444,52478.59
2628,21460,52498.57
2629,21476,52518.54
2630,21488,52538.52
2631,21500,52558.50
2632,21516,52578.47
2633,21516,52598.45
2634,21500,52618.43
2635,21452,52638.40
2636,21388,52658.38
2637,21324,52678.36
2638,21264,52698.33
2639,21228,52718.31
2640,21208,52738.29
2641,21204,52758.26
2642,21208,52778.24
2643,21216,52798.22
2644,21232,52818.19
2645,21244,52838.17
2646,21252,52858.15
2647,21264,52878.12
2648,21268,52898.10
2649,21268,52918.08
2650,21260,52938.05
2651,21252,52958.03
2652,21252,52978.01
2653,21252,52997.98
2654,21260,53017.96
2655,21272,53037.94
2656,21284,53057.91
2657,21296,53077.89
2658,21316,53097.86
2659,21328,53117.84
2660,21344,53137.82
2661,21360,53157.79
2662,21376,53177.77
2663,21392,53197.75
2664,21404,53217.72
2665,21420,53237.70
2666,21436,53257.68
2667,21452,53277.65
2668,21452,53297.63
2669,21428,53317.61
2670,21376,53337.58
2671,21308,53357.56
2672,21232,53377.54
2673,21180,53397.51
2674,21144,53417.49
2675,21124,53437.47
2676,21120,53457.44
2677,21124,53477.42
2678,21128,53497.40
2679,21136,53517.37
2680,21148,53537.35
2681,21156,53557.33
2682,21164,53577.30
2683,21164,53597.28
2684,21164,53617.26
2685,21168,53637.23
2686,21164,53657.21
2687,21168,53677.19
2688,21172,53697.16
2689,21180,53717.14
2690,21188,53737.12
2691,21200,53757.09
2692,21216,53777.07
2693,21228,53797.05
2694,21240,53817.02
2695,21252,53837.00
2696,21268,53856.98
2697,21280,53876.95
2698,21292,53896.93
2699,21308,53916.91
2700,21328,53936.88
2701,21340,53956.86
2702,21356,53976.84
2703,21352,53996.81
2704,21316,54016.79
2705,21256,54036.77
2706,21188,54056.74
2707,21120,54076.72
2708,21076,54096.70
2709,21048,54116.67
2710,21036,54136.65
2711,21032,54156.63
2712,21040,54176.60
2713,21044,54196.58
2714,21056,54216.56
2715,21068,54236.53
2716,21080,54256.51
2717,21084,54276.49
2718,21092,54296.46
2719,21088,54316.44
2720,21092,54336.42
2721,21092,54356.39
2722,21096,54376.37
2723,21100,54396.35
2724,21112,54416.32
2725,21124,54436.30
2726,21136,54456.28
2727,21152,54476.25
2728,21168,54496.23
2729,21184,54516.21
2730,21200,54536.18
2731,21220,54556.16
2732,21236,54576.14
2733,21248,54596.11
2734,21268,54616.09
2735,21280,54636.06
2736,21296,54656.04
2737,21308,54676.02
2738,21320,54695.99
2739,21308,54715.97
2740,21268,54735.95
2741,21208,54755.92
2742,21136,54775.90
2743,21072,54795.88
2744,21028,54815.85
2745,21004,54835.83
2746,20996,54855.81
2747,21000,54875.78
2748,21008,54895.76
2749,21016,54915.74
2750,21028,54935.71
2751,21040,54955.69
2752,21048,54975.67
2753,21048,54995.64
2754,21052,55015.62
2755,21052,55035.60
2756,21056,55055.57
2757,21056,55075.55
2758,21056,55095.53
2759,21068,55115.50
2760,21076,55135.48
2761,21084,55155.46
2762,21100,55175.43
2763,21116,55195.41
2764,21132,55215.39
2765,21148,55235.36
2766,21168,55255.34
2767,21180,55275.32
2768,21200,55295.29
2769,21216,55315.27
2770,21228,55335.25
2771,21244,55355.22
2772,21256,55375.20
2773,21268,55395.18
2774,21276,55415.15
2775,21264,55435.13
2776,21228,55455.11
2777,21172,55475.08
2778,21104,55495.06
2779,21048,55515.04
2780,21012,55535.01
2781,20988,55554.99
2782,20980,55574.97
2783,20984,55594.94
2784,20988,55614.92
2785,21000,55634.90
2786,21016,55654.87
2787,21024,55674.85
2788,21028,55694.83
2789,21032,55714.80
2790,21028,55734.78
2791,21020,55754.76
2792,21016,55774.73
2793,21016,55794.71
2794,21020,55814.69
2795,21020,55834.66
2796,21028,55854.64
2797,21040,55874.62
2798,21052,55894.59
2799,21064,55914.57
2800,21076,55934.55
2801,21092,55954.52
2802,21108,55974.50
2803,21124,55994.48
2804,21140,56014.45
2805,21152,56034.43
2806,21168,56054.41
2807,21184,56074.38
2808,21192,56094.36
2809,21180,56114.34
2810,21144,56134.31
2811,21084,56154.29
2812,21024,56174.26
2813,20968,56194.24
2814,20928,56214.22
2815,20912,56234.19
2816,20908,56254.17
2817,20908,56274.15
2818,20916,56294.12
2819,20920,56314.10
2820,20932,56334.08
2821,20940,56354.05
2822,20956,56374.03
2823,20960,56394.01
2824,20960,56413.98
2825,20964,56433.96
2826,20960,56453.94
2827,20964,56473.91
2828,20968,56493.89
2829,20976,56513.87
2830,20984,56533.84
2831,21000,56553.82
2832,21008,56573.80
2833,21024,56593.77
2834,21040,56613.75
2835,21056,56633.73
2836,21068,56653.70
2837,21084,56673.68
2838,21100,56693.66
2839,21116,56713.63
2840,21128,56733.61
2841,21140,56753.59
2842,21152,56773.56
2843,21164,56793.54
2844,21176,56813.52
2845,21160,56833.49
2846,21120,56853.47
2847,21056,56873.45
2848,20984,56893.42
2849,20928,56913.40
2850,20892,56933.38
2851,20872,56953.35
2852,20864,56973.33
2853,20864,56993.31
2854,20860,57013.28
2855,20872,57033.26
2856,20880,57053.24
2857,20888,57073.21
2858,20896,57093.19
2859,20904,57113.17
2860,20908,57133.14
2861,20912,57153.12
2862,20916,57173.10
2863,20920,57193.07
2864,20928,57213.05
2865,20936,57233.03
2866,20952,57253.00
2867,20964,57272.98
2868,20976,57292.96
2869,20992,57312.93
2870,21008,57332.91
2871,21032,57352.89
2872,21048,57372.86
2873,21064,57392.84
2874,21084,57412.82
2875,21096,57432.79
2876,21112,57452.77
2877,21128,57472.75
2878,21140,57492.72
2879,21148,57512.70
2880,21160,57532.68
2881,21176,57552.65
2882,21184,57572.63
2883,21192,57592.61
2884,21168,57612.58
2885,21116,57632.56
2886,21048,57652.54
2887,20980,57672.51
2888,20920,57692.49
2889,20884,57712.46
2890,20864,57732.44
2891,20860,57752.42
2892,20856,57772.39
2893,20860,57792.37
2894,20872,57812.35
2895,20884,57832.32
2896,20892,57852.30
2897,20904,57872.28
2898,20908,57892.25
2899,20912,57912.23
2900,20912,57932.21
2901,20908,57952.18
2902,20916,57972.16
2903,20924,57992.14
2904,20932,58012.11
2905,20940,58032.09
2906,20956,58052.07
2907,20976,58072.04
2908,20992,58092.02
2909,21008,58112.00
2910,21024,58131.97
2911,21040,58151.95
2912,21060,58171.93
2913,21072,58191.90
2914,21084,58211.88
2915,21100,58231.86
2916,21112,58251.83
2917,21124,58271.81
2918,21140,58291.79
2919,21152,58311.76
2920,21164,58331.74
2921,21176,58351.72
2922,21188,58371.69
2923,21180,58391.67
2924,21136,58411.65
2925,21076,58431.62
2926,21004,58451.60
2927,20940,58471.58
2928,20892,58491.55
2929,20868,58511.53
2930,20856,58531.51
2931,20856,58551.48
2932,20856,58571.46
2933,20864,58591.44
2934,20868,58611.41
2935,20880,58631.39
2936,20884,58651.37
2937,20888,58671.34
2938,20884,58691.32
2939,20884,58711.30
2940,20888,58731.27
2941,20888,58751.25
2942,20896,58771.23
2943,20908,58791.20
2944,20916,58811.18
2945,20932,58831.16
2946,20948,58851.13
2947,20968,58871.11
2948,20984,58891.09
2949,21000,58911.06
2950,21020,58931.04
2951,21040,58951.02
2952,21056,58970.99
2953,21076,58990.97
2954,21088,59010.95
2955,21108,59030.92
2956,21120,59050.90
2957,21136,59070.88
2958,21148,59090.85
2959,21160,59110.83
2960,21176,59130.81
2961,21192,59150.78
2962,21212,59170.76
2963,21220,59190.74
2964,21228,59210.71
2965,21204,59230.69
2966,21140,59250.66
2967,21064,59270.64
2968,20984,59290.62
2969,20924,59310.59
2970,20884,59330.57
2971,20860,59350.55
2972,20848,59370.52
2973,20844,59390.50
2974,20848,59410.48
2975,20852,59430.45
2976,20860,59450.43
2977,20868,59470.41
2978,20876,59490.38
2979,20880,59510.36
2980,20884,59530.34
2981,20888,59550.31
2982,20892,59570.29
2983,20900,59590.27
2984,20904,59610.24
2985,20920,59630.22
2986,20940,59650.20
2987,20960,59670.17
2988,20984,59690.15
2989,21004,59710.13
2990,21024,59730.10
2991,21048,59750.08
2992,21064,59770.06
2993,21080,59790.03
2994,21100,59810.01
2995,21116,59829.99
2996,21136,59849.96
2997,21152,59869.94
2998,21164,59889.92
2999,21184,59909.89
