Sample_Index,IR_Value,Timestamp_ms
0,20620,0.00
1,20664,19.97
2,20776,39.94
3,20920,59.92
4,21104,79.89
5,21284,99.86
6,21516,119.83
7,21672,139.80
8,21784,159.78
9,21876,179.75
10,21944,199.72
11,22000,219.69
12,22028,239.66
13,22044,259.63
14,22052,279.61
15,22064,299.58
16,22064,319.55
17,22056,339.52
18,22056,359.49
19,22072,379.47
20,22104,399.44
21,22148,419.41
22,22164,439.38
23,22132,459.35
24,22056,479.33
25,21940,499.30
26,21820,519.27
27,21736,539.24
28,21700,559.21
29,21684,579.19
30,21676,599.16
31,21664,619.13
32,21664,639.10
33,21664,659.07
34,21672,679.05
35,21672,699.02
36,21672,718.99
37,21664,738.96
38,21660,758.93
39,21656,778.90
40,21652,798.88
41,21660,818.85
42,21684,838.82
43,21712,858.79
44,21732,878.76
45,21744,898.74
46,21740,918.71
47,21728,938.68
48,21704,958.65
49,21696,978.62
50,21688,998.60
51,21684,1018.57
52,21692,1038.54
53,21724,1058.51
54,21760,1078.48
55,21788,1098.46
56,21768,1118.43
57,21656,1138.40
58,21552,1158.37
59,21516,1178.34
60,21520,1198.32
61,21516,1218.29
62,21492,1238.26
63,21476,1258.23
64,21496,1278.20
65,21532,1298.17
66,21568,1318.15
67,21592,1338.12
68,21588,1358.09
69,21540,1378.06
70,21456,1398.03
71,21360,1418.01
72,21288,1437.98
73,21232,1457.95
74,21188,1477.92
75,21172,1497.89
76,21164,1517.87
77,21176,1537.84
78,21196,1557.81
79,21220,1577.78
80,21244,1597.75
81,21268,1617.73
82,21284,1637.70
83,21296,1657.67
84,21304,1677.64
85,21300,1697.61
86,21304,1717.59
87,21320,1737.56
88,21340,1757.53
89,21364,1777.50
90,21384,1797.47
91,21396,1817.44
92,21404,1837.42
93,21416,1857.39
94,21440,1877.36
95,21456,1897.33
96,21476,1917.30
97,21484,1937.28
98,21488,1957.25
99,21488,1977.22
100,21496,1997.19
101,21512,2017.16
102,21532,2037.14
103,21548,2057.11
104,21560,2077.08
105,21568,2097.05
106,21580,2117.02
107,21580,2137.00
108,21584,2156.97
109,21592,2176.94
110,21608,2196.91
111,21632,2216.88
112,21648,2236.85
113,21668,2256.83
114,21684,2276.80
115,21664,2296.77
116,21604,2316.74
117,21512,2336.71
118,21412,2356.69
119,21328,2376.66
120,21272,2396.63
121,21252,2416.60
122,21252,2436.57
123,21260,2456.55
124,21276,2476.52
125,21296,2496.49
126,21316,2516.46
127,21344,2536.43
128,21364,2556.41
129,21368,2576.38
130,21372,2596.35
131,21368,2616.32
132,21368,2636.29
133,21372,2656.27
134,21376,2676.24
135,21388,2696.21
136,21400,2716.18
137,21416,2736.15
138,21432,2756.12
139,21444,2776.10
140,21464,2796.07
141,21476,2816.04
142,21488,2836.01
143,21496,2855.98
144,21504,2875.96
145,21512,2895.93
146,21520,2915.90
147,21532,2935.87
148,21536,2955.84
149,21540,2975.82
150,21548,2995.79
151,21556,3015.76
152,21564,3035.73
153,21572,3055.70
154,21584,3075.68
155,21584,3095.65
156,21532,3115.62
157,21460,3135.59
158,21360,3155.56
159,21264,3175.54
160,21200,3195.51
161,21164,3215.48
162,21164,3235.45
163,21172,3255.42
164,21192,3275.39
165,21216,3295.37
166,21244,3315.34
167,21260,3335.31
168,21272,3355.28
169,21276,3375.25
170,21276,3395.23
171,21264,3415.20
172,21264,3435.17
173,21260,3455.14
174,21260,3475.11
175,21260,3495.09
176,21264,3515.06
177,21268,3535.03
178,21280,3555.00
179,21288,3574.97
180,21296,3594.95
181,21304,3614.92
182,21316,3634.89
183,21328,3654.86
184,21336,3674.83
185,21344,3694.81
186,21352,3714.78
187,21360,3734.75
188,21372,3754.72
189,21380,3774.69
190,21388,3794.66
191,21400,3814.64
192,21396,3834.61
193,21352,3854.58
194,21272,3874.55
195,21180,3894.52
196,21096,3914.50
197,21048,3934.47
198,21028,3954.44
199,21032,3974.41
200,21048,3994.38
201,21064,4014.36
202,21084,4034.33
203,21108,4054.30
204,21132,4074.27
205,21152,4094.24
206,21164,4114.22
207,21168,4134.19
208,21164,4154.16
209,21164,4174.13
210,21168,4194.10
211,21168,4214.08
212,21172,4234.05
213,21188,4254.02
214,21200,4273.99
215,21220,4293.96
216,21236,4313.93
217,21256,4333.91
218,21264,4353.88
219,21280,4373.85
220,21292,4393.82
221,21300,4413.79
222,21324,4433.77
223,21340,4453.74
224,21352,4473.71
225,21364,4493.68
226,21384,4513.65
227,21396,4533.63
228,21400,4553.60
229,21372,4573.57
230,21308,4593.54
231,21216,4613.51
232,21136,4633.49
233,21080,4653.46
234,21056,4673.43
235,21056,4693.40
236,21076,4713.37
237,21104,4733.34
238,21136,4753.32
239,21164,4773.29
240,21200,4793.26
241,21220,4813.23
242,21236,4833.20
243,21240,4853.18
244,21236,4873.15
245,21236,4893.12
246,21232,4913.09
247,21232,4933.06
248,21244,4953.04
249,21256,4973.01
250,21272,4992.98
251,21292,5012.95
252,21312,5032.92
253,21332,5052.90
254,21352,5072.87
255,21372,5092.84
256,21384,5112.81
257,21396,5132.78
258,21416,5152.76
259,21432,5172.73
260,21452,5192.70
261,21464,5212.67
262,21484,5232.64
263,21472,5252.61
264,21428,5272.59
265,21364,5292.56
266,21300,5312.53
267,21252,5332.50
268,21224,5352.47
269,21216,5372.45
270,21228,5392.42
271,21248,5412.39
272,21276,5432.36
273,21308,5452.33
274,21340,5472.31
275,21368,5492.28
276,21384,5512.25
277,21392,5532.22
278,21392,5552.19
279,21392,5572.17
280,21396,5592.14
281,21400,5612.11
282,21404,5632.08
283,21416,5652.05
284,21428,5672.03
285,21456,5692.00
286,21476,5711.97
287,21496,5731.94
288,21512,5751.91
289,21528,5771.88
290,21540,5791.86
291,21556,5811.83
292,21568,5831.80
293,21584,5851.77
294,21600,5871.74
295,21596,5891.72
296,21564,5911.69
297,21512,5931.66
298,21448,5951.63
299,21400,5971.60
300,21372,5991.58
301,21360,6011.55
302,21368,6031.52
303,21380,6051.49
304,21404,6071.46
305,21432,6091.44
306,21460,6111.41
307,21476,6131.38
308,21488,6151.35
309,21496,6171.32
310,21500,6191.30
311,21500,6211.27
312,21500,6231.24
313,21508,6251.21
314,21520,6271.18
315,21524,6291.15
316,21544,6311.13
317,21560,6331.10
318,21576,6351.07
319,21592,6371.04
320,21608,6391.01
321,21620,6410.99
322,21632,6430.96
323,21656,6450.93
324,21672,6470.90
325,21692,6490.87
326,21704,6510.85
327,21700,6530.82
328,21668,6550.79
329,21616,6570.76
330,21556,6590.73
331,21504,6610.71
332,21472,6630.68
333,21464,6650.65
334,21472,6670.62
335,21488,6690.59
336,21504,6710.56
337,21528,6730.54
338,21552,6750.51
339,21576,6770.48
340,21592,6790.45
341,21600,6810.42
342,21608,6830.40
343,21608,6850.37
344,21608,6870.34
345,21616,6890.31
346,21628,6910.28
347,21644,6930.26
348,21660,6950.23
349,21676,6970.20
350,21692,6990.17
351,21712,7010.14
352,21732,7030.12
353,21748,7050.09
354,21764,7070.06
355,21780,7090.03
356,21800,7110.00
357,21820,7129.98
358,21840,7149.95
359,21860,7169.92
360,21860,7189.89
361,21832,7209.86
362,21784,7229.83
363,21724,7249.81
364,21672,7269.78
365,21632,7289.75
366,21612,7309.72
367,21608,7329.69
368,21612,7349.67
369,21632,7369.64
370,21652,7389.61
371,21672,7409.58
372,21696,7429.55
373,21708,7449.53
374,21724,7469.50
375,21728,7489.47
376,21732,7509.44
377,21732,7529.41
378,21736,7549.39
379,21740,7569.36
380,21744,7589.33
381,21756,7609.30
382,21772,7629.27
383,21792,7649.25
384,21808,7669.22
385,21816,7689.19
386,21832,7709.16
387,21844,7729.13
388,21856,7749.10
389,21864,7769.08
390,21880,7789.05
391,21892,7809.02
392,21900,7828.99
393,21912,7848.96
394,21904,7868.94
395,21872,7888.91
396,21824,7908.88
397,21764,7928.85
398,21712,7948.82
399,21680,7968.80
400,21664,7988.77
401,21668,8008.74
402,21676,8028.71
403,21692,8048.68
404,21708,8068.66
405,21728,8088.63
406,21744,8108.60
407,21752,8128.57
408,21756,8148.54
409,21756,8168.52
410,21752,8188.49
411,21756,8208.46
412,21756,8228.43
413,21764,8248.40
414,21768,8268.37
415,21776,8288.35
416,21792,8308.32
417,21804,8328.29
418,21812,8348.26
419,21824,8368.23
420,21840,8388.21
421,21848,8408.18
422,21860,8428.15
423,21868,8448.12
424,21876,8468.09
425,21880,8488.07
426,21876,8508.04
427,21856,8528.01
428,21816,8547.98
429,21764,8567.95
430,21720,8587.93
431,21684,8607.90
432,21660,8627.87
433,21656,8647.84
434,21660,8667.81
435,21672,8687.78
436,21692,8707.76
437,21712,8727.73
438,21728,8747.70
439,21736,8767.67
440,21732,8787.64
441,21724,8807.62
442,21708,8827.59
443,21696,8847.56
444,21692,8867.53
445,21692,8887.50
446,21704,8907.48
447,21716,8927.45
448,21728,8947.42
449,21740,8967.39
450,21756,8987.36
451,21772,9007.34
452,21784,9027.31
453,21800,9047.28
454,21812,9067.25
455,21824,9087.22
456,21836,9107.20
457,21840,9127.17
458,21820,9147.14
459,21776,9167.11
460,21720,9187.08
461,21660,9207.05
462,21612,9227.03
463,21588,9247.00
464,21576,9266.97
465,21584,9286.94
466,21600,9306.91
467,21620,9326.89
468,21636,9346.86
469,21656,9366.83
470,21672,9386.80
471,21680,9406.77
472,21680,9426.75
473,21680,9446.72
474,21676,9466.69
475,21680,9486.66
476,21688,9506.63
477,21692,9526.61
478,21704,9546.58
479,21716,9566.55
480,21732,9586.52
481,21744,9606.49
482,21760,9626.47
483,21776,9646.44
484,21788,9666.41
485,21800,9686.38
486,21804,9706.35
487,21812,9726.32
488,21824,9746.30
489,21832,9766.27
490,21840,9786.24
491,21848,9806.21
492,21840,9826.18
493,21800,9846.16
494,21728,9866.13
495,21640,9886.10
496,21560,9906.07
497,21512,9926.04
498,21492,9946.02
499,21492,9965.99
500,21496,9985.96
501,21508,10005.93
502,21508,10025.90
503,21524,10045.88
504,21528,10065.85
505,21532,10085.82
506,21536,10105.79
507,21532,10125.76
508,21524,10145.74
509,21520,10165.71
510,21512,10185.68
511,21512,10205.65
512,21512,10225.62
513,21520,10245.59
514,21532,10265.57
515,21548,10285.54
516,21568,10305.51
517,21592,10325.48
518,21612,10345.45
519,21632,10365.43
520,21656,10385.40
521,21672,10405.37
522,21696,10425.34
523,21716,10445.31
524,21736,10465.29
525,21760,10485.26
526,21776,10505.23
527,21760,10525.20
528,21724,10545.17
529,21684,10565.15
530,21648,10585.12
531,21628,10605.09
532,21620,10625.06
533,21616,10645.03
534,21628,10665.01
535,21640,10684.98
536,21652,10704.95
537,21664,10724.92
538,21672,10744.89
539,21692,10764.86
540,21708,10784.84
541,21720,10804.81
542,21728,10824.78
543,21732,10844.75
544,21740,10864.72
545,21756,10884.70
546,21772,10904.67
547,21788,10924.64
548,21792,10944.61
549,21804,10964.58
550,21812,10984.56
551,21828,11004.53
552,21844,11024.50
553,21868,11044.47
554,21888,11064.44
555,21892,11084.42
556,21892,11104.39
557,21900,11124.36
558,21924,11144.33
559,21940,11164.30
560,21940,11184.27
561,21924,11204.25
562,21900,11224.22
563,21884,11244.19
564,21868,11264.16
565,21852,11284.13
566,21844,11304.11
567,21840,11324.08
568,21844,11344.05
569,21852,11364.02
570,21864,11383.99
571,21880,11403.97
572,21888,11423.94
573,21896,11443.91
574,21896,11463.88
575,21904,11483.85
576,21908,11503.83
577,21916,11523.80
578,21924,11543.77
579,21928,11563.74
580,21944,11583.71
581,21952,11603.69
582,21964,11623.66
583,21976,11643.63
584,21988,11663.60
585,22000,11683.57
586,22008,11703.54
587,22024,11723.52
588,22036,11743.49
589,22044,11763.46
590,22060,11783.43
591,22072,11803.40
592,22084,11823.38
593,22084,11843.35
594,22096,11863.32
595,22104,11883.29
596,22100,11903.26
597,22100,11923.24
598,22092,11943.21
599,22080,11963.18
600,22068,11983.15
601,22060,12003.12
602,22056,12023.10
603,22056,12043.07
604,22068,12063.04
605,22076,12083.01
606,22080,12102.98
607,22080,12122.96
608,22088,12142.93
609,22092,12162.90
610,22092,12182.87
611,22096,12202.84
612,22096,12222.81
613,22100,12242.79
614,22104,12262.76
615,22108,12282.73
616,22116,12302.70
617,22124,12322.67
618,22124,12342.65
619,22136,12362.62
620,22144,12382.59
621,22148,12402.56
622,22156,12422.53
623,22164,12442.51
624,22176,12462.48
625,22184,12482.45
626,22196,12502.42
627,22204,12522.39
628,22208,12542.37
629,22216,12562.34
630,22220,12582.31
631,22216,12602.28
632,22212,12622.25
633,22204,12642.23
634,22212,12662.20
635,22216,12682.17
636,22220,12702.14
637,22220,12722.11
638,22228,12742.08
639,22232,12762.06
640,22240,12782.03
641,22240,12802.00
642,22248,12821.97
643,22256,12841.94
644,22260,12861.92
645,22264,12881.89
646,22264,12901.86
647,22268,12921.83
648,22276,12941.80
649,22276,12961.78
650,22288,12981.75
651,22292,13001.72
652,22296,13021.69
653,22304,13041.66
654,22312,13061.64
655,22316,13081.61
656,22320,13101.58
657,22320,13121.55
658,22324,13141.52
659,22328,13161.49
660,22340,13181.47
661,22348,13201.44
662,22340,13221.41
663,22336,13241.38
664,22328,13261.35
665,22320,13281.33
666,22320,13301.30
667,22328,13321.27
668,22328,13341.24
669,22328,13361.21
670,22324,13381.19
671,22328,13401.16
672,22332,13421.13
673,22336,13441.10
674,22328,13461.07
675,22320,13481.05
676,22312,13501.02
677,22312,13520.99
678,22312,13540.96
679,22312,13560.93
680,22316,13580.91
681,22316,13600.88
682,22312,13620.85
683,22312,13640.82
684,22312,13660.79
685,22312,13680.76
686,22320,13700.74
687,22320,13720.71
688,22324,13740.68
689,22328,13760.65
690,22332,13780.62
691,22340,13800.60
692,22336,13820.57
693,22332,13840.54
694,22332,13860.51
695,22332,13880.48
696,22348,13900.46
697,22360,13920.43
698,22368,13940.40
699,22380,13960.37
700,22384,13980.34
701,22392,14000.32
702,22400,14020.29
703,22408,14040.26
704,22416,14060.23
705,22416,14080.20
706,22424,14100.18
707,22428,14120.15
708,22432,14140.12
709,22440,14160.09
710,22444,14180.06
711,22444,14200.03
712,22448,14220.01
713,22452,14239.98
714,22460,14259.95
715,22468,14279.92
716,22472,14299.89
717,22472,14319.87
718,22476,14339.84
719,22476,14359.81
720,22476,14379.78
721,22476,14399.75
722,22472,14419.73
723,22468,14439.70
724,22476,14459.67
725,22484,14479.64
726,22492,14499.61
727,22504,14519.59
728,22512,14539.56
729,22520,14559.53
730,22524,14579.50
731,22536,14599.47
732,22548,14619.45
733,22552,14639.42
734,22560,14659.39
735,22564,14679.36
736,22576,14699.33
737,22580,14719.30
738,22588,14739.28
739,22600,14759.25
740,22612,14779.22
741,22624,14799.19
742,22628,14819.16
743,22636,14839.14
744,22644,14859.11
745,22656,14879.08
746,22668,14899.05
747,22672,14919.02
748,22672,14939.00
749,22676,14958.97
750,22676,14978.94
751,22684,14998.91
752,22692,15018.88
753,22704,15038.86
754,22712,15058.83
755,22716,15078.80
756,22724,15098.77
757,22732,15118.74
758,22744,15138.71
759,22756,15158.69
760,22768,15178.66
761,22776,15198.63
762,22780,15218.60
763,22788,15238.57
764,22796,15258.55
765,22800,15278.52
766,22812,15298.49
767,22820,15318.46
768,22832,15338.43
769,22844,15358.41
770,22852,15378.38
771,22860,15398.35
772,22868,15418.32
773,22876,15438.29
774,22884,15458.27
775,22888,15478.24
776,22896,15498.21
777,22908,15518.18
778,22916,15538.15
779,22916,15558.13
780,22916,15578.10
781,22916,15598.07
782,22916,15618.04
783,22924,15638.01
784,22928,15657.98
785,22936,15677.96
786,22944,15697.93
787,22952,15717.90
788,22956,15737.87
789,22956,15757.84
790,22956,15777.82
791,22964,15797.79
792,22960,15817.76
793,22960,15837.73
794,22960,15857.70
795,22964,15877.68
796,22972,15897.65
797,22976,15917.62
798,22984,15937.59
799,22984,15957.56
800,22992,15977.54
801,22996,15997.51
802,22996,16017.48
803,23004,16037.45
804,23008,16057.42
805,23012,16077.40
806,23012,16097.37
807,23020,16117.34
808,23024,16137.31
809,23016,16157.28
810,23012,16177.25
811,23012,16197.23
812,23012,16217.20
813,23020,16237.17
814,23032,16257.14
815,23036,16277.11
816,23044,16297.09
817,23048,16317.06
818,23056,16337.03
819,23056,16357.00
820,23056,16376.97
821,23056,16396.95
822,23052,16416.92
823,23056,16436.89
824,23056,16456.86
825,23060,16476.83
826,23064,16496.81
827,23064,16516.78
828,23064,16536.75
829,23072,16556.72
830,23072,16576.69
831,23072,16596.67
832,23080,16616.64
833,23084,16636.61
834,23092,16656.58
835,23096,16676.55
836,23104,16696.52
837,23112,16716.50
838,23120,16736.47
839,23124,16756.44
840,23132,16776.41
841,23140,16796.38
842,23140,16816.36
843,23136,16836.33
844,23136,16856.30
845,23132,16876.27
846,23136,16896.24
847,23140,16916.22
848,23144,16936.19
849,23148,16956.16
850,23152,16976.13
851,23156,16996.10
852,23164,17016.08
853,23168,17036.05
854,23168,17056.02
855,23168,17075.99
856,23164,17095.96
857,23168,17115.93
858,23168,17135.91
859,23168,17155.88
860,23168,17175.85
861,23172,17195.82
862,23180,17215.79
863,23180,17235.77
864,23180,17255.74
865,23184,17275.71
866,23184,17295.68
867,23192,17315.65
868,23200,17335.63
869,23204,17355.60
870,23212,17375.57
871,23216,17395.54
872,23224,17415.51
873,23224,17435.49
874,23228,17455.46
875,23236,17475.43
876,23240,17495.40
877,23248,17515.37
878,23252,17535.35
879,23256,17555.32
880,23256,17575.29
881,23248,17595.26
882,23240,17615.23
883,23232,17635.20
884,23232,17655.18
885,23224,17675.15
886,23224,17695.12
887,23220,17715.09
888,23224,17735.06
889,23224,17755.04
890,23228,17775.01
891,23224,17794.98
892,23224,17814.95
893,23216,17834.92
894,23216,17854.90
895,23212,17874.87
896,23208,17894.84
897,23204,17914.81
898,23204,17934.78
899,23200,17954.76
900,23200,17974.73
901,23200,17994.70
902,23204,18014.67
903,23200,18034.64
904,23200,18054.62
905,23196,18074.59
906,23204,18094.56
907,23204,18114.53
908,23200,18134.50
909,23204,18154.47
910,23208,18174.45
911,23208,18194.42
912,23204,18214.39
913,23204,18234.36
914,23212,18254.33
915,23212,18274.31
916,23212,18294.28
917,23212,18314.25
918,23212,18334.22
919,23200,18354.19
920,23184,18374.17
921,23172,18394.14
922,23160,18414.11
923,23148,18434.08
924,23144,18454.05
925,23144,18474.03
926,23140,18494.00
927,23140,18513.97
928,23140,18533.94
929,23136,18553.91
930,23132,18573.89
931,23128,18593.86
932,23124,18613.83
933,23124,18633.80
934,23124,18653.77
935,23120,18673.74
936,23116,18693.72
937,23116,18713.69
938,23116,18733.66
939,23116,18753.63
940,23120,18773.60
941,23120,18793.58
942,23124,18813.55
943,23124,18833.52
944,23128,18853.49
945,23136,18873.46
946,23144,18893.44
947,23148,18913.41
948,23152,18933.38
949,23156,18953.35
950,23164,18973.32
951,23168,18993.30
952,23176,19013.27
953,23184,19033.24
954,23192,19053.21
955,23196,19073.18
956,23200,19093.16
957,23200,19113.13
958,23192,19133.10
959,23180,19153.07
960,23172,19173.04
961,23156,19193.01
962,23140,19212.99
963,23128,19232.96
964,23128,19252.93
965,23128,19272.90
966,23124,19292.87
967,23128,19312.85
968,23128,19332.82
969,23128,19352.79
970,23128,19372.76
971,23128,19392.73
972,23132,19412.71
973,23132,19432.68
974,23128,19452.65
975,23124,19472.62
976,23124,19492.59
977,23124,19512.57
978,23124,19532.54
979,23124,19552.51
980,23128,19572.48
981,23136,19592.45
982,23136,19612.42
983,23140,19632.40
984,23148,19652.37
985,23156,19672.34
986,23164,19692.31
987,23168,19712.28
988,23168,19732.26
989,23172,19752.23
990,23180,19772.20
991,23184,19792.17
992,23192,19812.14
993,23196,19832.12
994,23200,19852.09
995,23204,19872.06
996,23212,19892.03
997,23212,19912.00
998,23204,19931.98
999,23188,19951.95
1000,23168,19971.92
1001,23152,19991.89
1002,23136,20011.86
1003,23124,20031.84
1004,23116,20051.81
1005,23112,20071.78
1006,23108,20091.75
1007,23112,20111.72
1008,23112,20131.69
1009,23120,20151.67
1010,23120,20171.64
1011,23120,20191.61
1012,23112,20211.58
1013,23108,20231.55
1014,23108,20251.53
1015,23104,20271.50
1016,23104,20291.47
1017,23104,20311.44
1018,23108,20331.41
1019,23108,20351.39
1020,23104,20371.36
1021,23108,20391.33
1022,23108,20411.30
1023,23108,20431.27
1024,23112,20451.25
1025,23116,20471.22
1026,23116,20491.19
1027,23120,20511.16
1028,23124,20531.13
1029,23124,20551.11
1030,23124,20571.08
1031,23124,20591.05
1032,23124,20611.02
1033,23116,20630.99
1034,23100,20650.96
1035,23084,20670.94
1036,23060,20690.91
1037,23040,20710.88
1038,23016,20730.85
1039,23000,20750.82
1040,22992,20770.80
1041,22988,20790.77
1042,22988,20810.74
1043,22988,20830.71
1044,22988,20850.68
1045,22988,20870.66
1046,22988,20890.63
1047,22988,20910.60
1048,22984,20930.57
1049,22972,20950.54
1050,22968,20970.52
1051,22968,20990.49
1052,22960,21010.46
1053,22956,21030.43
1054,22960,21050.40
1055,22960,21070.38
1056,22960,21090.35
1057,22964,21110.32
1058,22964,21130.29
1059,22964,21150.26
1060,22968,21170.23
1061,22968,21190.21
1062,22972,21210.18
1063,22972,21230.15
1064,22972,21250.12
1065,22972,21270.09
1066,22968,21290.07
1067,22948,21310.04
1068,22916,21330.01
1069,22888,21349.98
1070,22852,21369.95
1071,22820,21389.93
1072,22788,21409.90
1073,22756,21429.87
1074,22732,21449.84
1075,22712,21469.81
1076,22696,21489.79
1077,22680,21509.76
1078,22664,21529.73
1079,22644,21549.70
1080,22632,21569.67
1081,22628,21589.64
1082,22612,21609.62
1083,22600,21629.59
1084,22584,21649.56
1085,22580,21669.53
1086,22576,21689.50
1087,22576,21709.48
1088,22576,21729.45
1089,22576,21749.42
1090,22572,21769.39
1091,22580,21789.36
1092,22584,21809.34
1093,22588,21829.31
1094,22584,21849.28
1095,22588,21869.25
1096,22592,21889.22
1097,22592,21909.20
1098,22584,21929.17
1099,22564,21949.14
1100,22540,21969.11
1101,22516,21989.08
1102,22492,22009.06
1103,22472,22029.03
1104,22460,22049.00
1105,22452,22068.97
1106,22448,22088.94
1107,22452,22108.91
1108,22464,22128.89
1109,22468,22148.86
1110,22464,22168.83
1111,22456,22188.80
1112,22448,22208.77
1113,22444,22228.75
1114,22440,22248.72
1115,22436,22268.69
1116,22428,22288.66
1117,22420,22308.63
1118,22424,22328.61
1119,22424,22348.58
1120,22416,22368.55
1121,22416,22388.52
1122,22420,22408.49
1123,22416,22428.47
1124,22416,22448.44
1125,22420,22468.41
1126,22420,22488.38
1127,22412,22508.35
1128,22396,22528.33
1129,22376,22548.30
1130,22348,22568.27
1131,22316,22588.24
1132,22296,22608.21
1133,22292,22628.18
1134,22292,22648.16
1135,22292,22668.13
1136,22292,22688.10
1137,22308,22708.07
1138,22328,22728.04
1139,22344,22748.02
1140,22352,22767.99
1141,22340,22787.96
1142,22328,22807.93
1143,22324,22827.90
1144,22312,22847.88
1145,22288,22867.85
1146,22264,22887.82
1147,22260,22907.79
1148,22268,22927.76
1149,22276,22947.74
1150,22288,22967.71
1151,22288,22987.68
1152,22284,23007.65
1153,22272,23027.62
1154,22252,23047.60
1155,22228,23067.57
1156,22192,23087.54
1157,22136,23107.51
1158,22080,23127.48
1159,22024,23147.45
1160,21972,23167.43
1161,21928,23187.40
1162,21892,23207.37
1163,21864,23227.34
1164,21836,23247.31
1165,21808,23267.29
1166,21800,23287.26
1167,21804,23307.23
1168,21812,23327.20
1169,21824,23347.17
1170,21860,23367.15
1171,21904,23387.12
1172,21952,23407.09
1173,22008,23427.06
1174,22036,23447.03
1175,22056,23467.01
1176,22100,23486.98
1177,22160,23506.95
1178,22192,23526.92
1179,22196,23546.89
1180,22176,23566.86
1181,22140,23586.84
1182,22076,23606.81
1183,22032,23626.78
1184,22040,23646.75
1185,22060,23666.72
1186,22072,23686.70
1187,22068,23706.67
1188,22040,23726.64
1189,22016,23746.61
1190,22036,23766.58
1191,22104,23786.56
1192,22156,23806.53
1193,22240,23826.50
1194,22340,23846.47
1195,22408,23866.44
1196,22464,23886.42
1197,22492,23906.39
1198,22488,23926.36
1199,22464,23946.33
1200,22412,23966.30
1201,22388,23986.28
1202,22360,24006.25
1203,22312,24026.22
1204,22308,24046.19
1205,22380,24066.16
1206,22424,24086.13
1207,22484,24106.11
1208,22552,24126.08
1209,22608,24146.05
1210,22652,24166.02
1211,22708,24185.99
1212,22788,24205.97
1213,22908,24225.94
1214,22968,24245.91
1215,22976,24265.88
1216,22984,24285.85
1217,22984,24305.83
1218,22968,24325.80
1219,22936,24345.77
1220,22892,24365.74
1221,22832,24385.71
1222,22780,24405.69
1223,22740,24425.66
1224,22708,24445.63
1225,22688,24465.60
1226,22668,24485.57
1227,22648,24505.55
1228,22632,24525.52
1229,22616,24545.49
1230,22596,24565.46
1231,22580,24585.43
1232,22568,24605.40
1233,22540,24625.38
1234,22520,24645.35
1235,22504,24665.32
1236,22484,24685.29
1237,22472,24705.26
1238,22460,24725.24
1239,22448,24745.21
1240,22440,24765.18
1241,22436,24785.15
1242,22432,24805.12
1243,22428,24825.10
1244,22428,24845.07
1245,22424,24865.04
1246,22420,24885.01
1247,22424,24904.98
1248,22420,24924.96
1249,22420,24944.93
1250,22412,24964.90
1251,22380,24984.87
1252,22328,25004.84
1253,22256,25024.82
1254,22176,25044.79
1255,22104,25064.76
1256,22040,25084.73
1257,22000,25104.70
1258,21972,25124.67
1259,21956,25144.65
1260,21952,25164.62
1261,21948,25184.59
1262,21948,25204.56
1263,21944,25224.53
1264,21940,25244.51
1265,21940,25264.48
1266,21924,25284.45
1267,21916,25304.42
1268,21904,25324.39
1269,21900,25344.37
1270,21896,25364.34
1271,21892,25384.31
1272,21896,25404.28
1273,21896,25424.25
1274,21900,25444.23
1275,21900,25464.20
1276,21908,25484.17
1277,21916,25504.14
1278,21924,25524.11
1279,21932,25544.09
1280,21936,25564.06
1281,21944,25584.03
1282,21952,25604.00
1283,21956,25623.97
1284,21968,25643.94
1285,21980,25663.92
1286,21988,25683.89
1287,21980,25703.86
1288,21948,25723.83
1289,21892,25743.80
1290,21820,25763.78
1291,21748,25783.75
1292,21684,25803.72
1293,21640,25823.69
1294,21616,25843.66
1295,21604,25863.64
1296,21604,25883.61
1297,21608,25903.58
1298,21624,25923.55
1299,21632,25943.52
1300,21640,25963.50
1301,21648,25983.47
1302,21652,26003.44
1303,21660,26023.41
1304,21664,26043.38
1305,21668,26063.35
1306,21672,26083.33
1307,21676,26103.30
1308,21684,26123.27
1309,21688,26143.24
1310,21704,26163.21
1311,21716,26183.19
1312,21728,26203.16
1313,21744,26223.13
1314,21756,26243.10
1315,21764,26263.07
1316,21776,26283.05
1317,21784,26303.02
1318,21792,26322.99
1319,21800,26342.96
1320,21808,26362.93
1321,21828,26382.91
1322,21856,26402.88
1323,21888,26422.85
1324,21912,26442.82
1325,21932,26462.79
1326,21936,26482.77
1327,21904,26502.74
1328,21852,26522.71
1329,21784,26542.68
1330,21716,26562.65
1331,21664,26582.62
1332,21628,26602.60
1333,21600,26622.57
1334,21588,26642.54
1335,21580,26662.51
1336,21584,26682.48
1337,21592,26702.46
1338,21604,26722.43
1339,21616,26742.40
1340,21612,26762.37
1341,21600,26782.34
1342,21584,26802.32
1343,21564,26822.29
1344,21552,26842.26
1345,21544,26862.23
1346,21516,26882.20
1347,21468,26902.18
1348,21420,26922.15
1349,21372,26942.12
1350,21316,26962.09
1351,21264,26982.06
1352,21212,27002.04
1353,21160,27022.01
1354,21128,27041.98
1355,21108,27061.95
1356,21096,27081.92
1357,21080,27101.89
1358,21080,27121.87
1359,21088,27141.84
1360,21116,27161.81
1361,21156,27181.78
1362,21200,27201.75
1363,21236,27221.73
1364,21232,27241.70
1365,21200,27261.67
1366,21140,27281.64
1367,21068,27301.61
1368,21004,27321.59
1369,20952,27341.56
1370,20920,27361.53
1371,20888,27381.50
1372,20864,27401.47
1373,20848,27421.45
1374,20848,27441.42
1375,20856,27461.39
1376,20860,27481.36
1377,20860,27501.33
1378,20856,27521.31
1379,20848,27541.28
1380,20844,27561.25
1381,20852,27581.22
1382,20852,27601.19
1383,20848,27621.16
1384,20852,27641.14
1385,20860,27661.11
1386,20876,27681.08
1387,20888,27701.05
1388,20904,27721.02
1389,20908,27741.00
1390,20920,27760.97
1391,20932,27780.94
1392,20944,27800.91
1393,20960,27820.88
1394,20976,27840.86
1395,20988,27860.83
1396,21004,27880.80
1397,21016,27900.77
1398,21028,27920.74
1399,21036,27940.72
1400,21044,27960.69
1401,21052,27980.66
1402,21064,28000.63
1403,21072,28020.60
1404,21060,28040.57
1405,21032,28060.55
1406,20988,28080.52
1407,20944,28100.49
1408,20892,28120.46
1409,20864,28140.43
1410,20852,28160.41
1411,20852,28180.38
1412,20864,28200.35
1413,20876,28220.32
1414,20896,28240.29
1415,20916,28260.27
1416,20932,28280.24
1417,20944,28300.21
1418,20964,28320.18
1419,20988,28340.15
1420,21000,28360.13
1421,21008,28380.10
1422,21008,28400.07
1423,21020,28420.04
1424,21044,28440.01
1425,21064,28459.99
1426,21076,28479.96
1427,21088,28499.93
1428,21104,28519.90
1429,21120,28539.87
1430,21140,28559.84
1431,21156,28579.82
1432,21176,28599.79
1433,21192,28619.76
1434,21200,28639.73
1435,21220,28659.70
1436,21236,28679.68
1437,21244,28699.65
1438,21256,28719.62
1439,21264,28739.59
1440,21276,28759.56
1441,21292,28779.54
1442,21300,28799.51
1443,21304,28819.48
1444,21272,28839.45
1445,21224,28859.42
1446,21168,28879.40
1447,21112,28899.37
1448,21076,28919.34
1449,21052,28939.31
1450,21044,28959.28
1451,21040,28979.26
1452,21052,28999.23
1453,21068,29019.20
1454,21084,29039.17
1455,21100,29059.14
1456,21112,29079.11
1457,21124,29099.09
1458,21132,29119.06
1459,21132,29139.03
1460,21140,29159.00
1461,21140,29178.97
1462,21144,29198.95
1463,21136,29218.92
1464,21144,29238.89
1465,21160,29258.86
1466,21172,29278.83
1467,21176,29298.81
1468,21192,29318.78
1469,21204,29338.75
1470,21212,29358.72
1471,21224,29378.69
1472,21228,29398.67
1473,21236,29418.64
1474,21240,29438.61
1475,21244,29458.58
1476,21252,29478.55
1477,21260,29498.53
1478,21260,29518.50
1479,21240,29538.47
1480,21192,29558.44
1481,21144,29578.41
1482,21092,29598.38
1483,21048,29618.36
1484,21024,29638.33
1485,21020,29658.30
1486,21024,29678.27
1487,21028,29698.24
1488,21052,29718.22
1489,21068,29738.19
1490,21088,29758.16
1491,21104,29778.13
1492,21120,29798.10
1493,21120,29818.08
1494,21128,29838.05
1495,21132,29858.02
1496,21132,29877.99
1497,21132,29897.96
1498,21132,29917.94
1499,21148,29937.91
1500,21164,29957.88
1501,21180,29977.85
1502,21196,29997.82
1503,21208,30017.79
1504,21228,30037.77
1505,21244,30057.74
1506,21264,30077.71
1507,21280,30097.68
1508,21296,30117.65
1509,21308,30137.63
1510,21320,30157.60
1511,21328,30177.57
1512,21320,30197.54
1513,21292,30217.51
1514,21244,30237.49
1515,21184,30257.46
1516,21136,30277.43
1517,21108,30297.40
1518,21100,30317.37
1519,21108,30337.35
1520,21116,30357.32
1521,21136,30377.29
1522,21160,30397.26
1523,21188,30417.23
1524,21204,30437.21
1525,21220,30457.18
1526,21232,30477.15
1527,21244,30497.12
1528,21252,30517.09
1529,21248,30537.06
1530,21252,30557.04
1531,21260,30577.01
1532,21280,30596.98
1533,21300,30616.95
1534,21320,30636.92
1535,21340,30656.90
1536,21360,30676.87
1537,21380,30696.84
1538,21404,30716.81
1539,21424,30736.78
1540,21444,30756.76
1541,21456,30776.73
1542,21468,30796.70
1543,21472,30816.67
1544,21460,30836.64
1545,21416,30856.62
1546,21364,30876.59
1547,21312,30896.56
1548,21268,30916.53
1549,21252,30936.50
1550,21252,30956.48
1551,21260,30976.45
1552,21280,30996.42
1553,21300,31016.39
1554,21320,31036.36
1555,21348,31056.33
1556,21364,31076.31
1557,21376,31096.28
1558,21376,31116.25
1559,21380,31136.22
1560,21384,31156.19
1561,21392,31176.17
1562,21400,31196.14
1563,21412,31216.11
1564,21420,31236.08
1565,21436,31256.05
1566,21452,31276.03
1567,21472,31296.00
1568,21488,31315.97
1569,21504,31335.94
1570,21524,31355.91
1571,21540,31375.89
1572,21552,31395.86
1573,21544,31415.83
1574,21508,31435.80
1575,21456,31455.77
1576,21400,31475.75
1577,21356,31495.72
1578,21328,31515.69
1579,21316,31535.66
1580,21324,31555.63
1581,21340,31575.60
1582,21360,31595.58
1583,21376,31615.55
1584,21396,31635.52
1585,21412,31655.49
1586,21424,31675.46
1587,21428,31695.44
1588,21424,31715.41
1589,21420,31735.38
1590,21420,31755.35
1591,21424,31775.32
1592,21428,31795.30
1593,21436,31815.27
1594,21444,31835.24
1595,21456,31855.21
1596,21472,31875.18
1597,21488,31895.16
1598,21512,31915.13
1599,21524,31935.10
1600,21540,31955.07
1601,21552,31975.04
1602,21536,31995.02
1603,21496,32014.99
1604,21440,32034.96
1605,21380,32054.93
1606,21344,32074.90
1607,21324,32094.87
1608,21320,32114.85
1609,21328,32134.82
1610,21348,32154.79
1611,21372,32174.76
1612,21396,32194.73
1613,21420,32214.71
1614,21436,32234.68
1615,21448,32254.65
1616,21456,32274.62
1617,21456,32294.59
1618,21456,32314.57
1619,21452,32334.54
1620,21460,32354.51
1621,21468,32374.48
1622,21480,32394.45
1623,21488,32414.43
1624,21496,32434.40
1625,21516,32454.37
1626,21532,32474.34
1627,21552,32494.31
1628,21564,32514.28
1629,21580,32534.26
1630,21576,32554.23
1631,21548,32574.20
1632,21496,32594.17
1633,21432,32614.14
1634,21380,32634.12
1635,21344,32654.09
1636,21324,32674.06
1637,21324,32694.03
1638,21336,32714.00
1639,21356,32733.98
1640,21384,32753.95
1641,21416,32773.92
1642,21432,32793.89
1643,21448,32813.86
1644,21456,32833.84
1645,21464,32853.81
1646,21464,32873.78
1647,21464,32893.75
1648,21468,32913.72
1649,21476,32933.70
1650,21480,32953.67
1651,21496,32973.64
1652,21512,32993.61
1653,21528,33013.58
1654,21540,33033.55
1655,21560,33053.53
1656,21580,33073.50
1657,21588,33093.47
1658,21596,33113.44
1659,21576,33133.41
1660,21528,33153.39
1661,21468,33173.36
1662,21404,33193.33
1663,21352,33213.30
1664,21324,33233.27
1665,21320,33253.25
1666,21328,33273.22
1667,21344,33293.19
1668,21360,33313.16
1669,21392,33333.13
1670,21416,33353.11
1671,21432,33373.08
1672,21444,33393.05
1673,21444,33413.02
1674,21436,33432.99
1675,21432,33452.97
1676,21432,33472.94
1677,21436,33492.91
1678,21440,33512.88
1679,21448,33532.85
1680,21460,33552.82
1681,21464,33572.80
1682,21480,33592.77
1683,21496,33612.74
1684,21504,33632.71
1685,21516,33652.68
1686,21516,33672.66
1687,21488,33692.63
1688,21436,33712.60
1689,21380,33732.57
1690,21324,33752.54
1691,21284,33772.52
1692,21264,33792.49
1693,21264,33812.46
1694,21272,33832.43
1695,21292,33852.40
1696,21316,33872.38
1697,21336,33892.35
1698,21352,33912.32
1699,21368,33932.29
1700,21372,33952.26
1701,21368,33972.24
1702,21360,33992.21
1703,21360,34012.18
1704,21368,34032.15
1705,21368,34052.12
1706,21376,34072.09
1707,21392,34092.07
1708,21408,34112.04
1709,21424,34132.01
1710,21440,34151.98
1711,21456,34171.95
1712,21472,34191.93
1713,21488,34211.90
1714,21488,34231.87
1715,21456,34251.84
1716,21392,34271.81
1717,21316,34291.79
1718,21248,34311.76
1719,21204,34331.73
1720,21180,34351.70
1721,21172,34371.67
1722,21180,34391.65
1723,21200,34411.62
1724,21228,34431.59
1725,21248,34451.56
1726,21268,34471.53
1727,21280,34491.50
1728,21288,34511.48
1729,21284,34531.45
1730,21284,34551.42
1731,21280,34571.39
1732,21272,34591.36
1733,21272,34611.34
1734,21284,34631.31
1735,21296,34651.28
1736,21308,34671.25
1737,21324,34691.22
1738,21336,34711.20
1739,21352,34731.17
1740,21368,34751.14
1741,21384,34771.11
1742,21400,34791.08
1743,21380,34811.06
1744,21336,34831.03
1745,21256,34851.00
1746,21188,34870.97
1747,21132,34890.94
1748,21104,34910.92
1749,21096,34930.89
1750,21100,34950.86
1751,21116,34970.83
1752,21140,34990.80
1753,21164,35010.77
1754,21188,35030.75
1755,21204,35050.72
1756,21216,35070.69
1757,21216,35090.66
1758,21224,35110.63
1759,21220,35130.61
1760,21224,35150.58
1761,21228,35170.55
1762,21236,35190.52
1763,21252,35210.49
1764,21264,35230.47
1765,21280,35250.44
1766,21296,35270.41
1767,21312,35290.38
1768,21324,35310.35
1769,21340,35330.33
1770,21356,35350.30
1771,21372,35370.27
1772,21380,35390.24
1773,21352,35410.21
1774,21292,35430.19
1775,21208,35450.16
1776,21136,35470.13
1777,21088,35490.10
1778,21064,35510.07
1779,21064,35530.04
1780,21076,35550.02
1781,21096,35569.99
1782,21124,35589.96
1783,21148,35609.93
1784,21172,35629.90
1785,21188,35649.88
1786,21192,35669.85
1787,21192,35689.82
1788,21188,35709.79
1789,21184,35729.76
1790,21188,35749.74
1791,21196,35769.71
1792,21204,35789.68
1793,21216,35809.65
1794,21228,35829.62
1795,21244,35849.60
1796,21260,35869.57
1797,21276,35889.54
1798,21292,35909.51
1799,21308,35929.48
1800,21320,35949.46
1801,21332,35969.43
1802,21324,35989.40
1803,21288,36009.37
1804,21216,36029.34
1805,21144,36049.31
1806,21076,36069.29
1807,21028,36089.26
1808,21008,36109.23
1809,21020,36129.20
1810,21032,36149.17
1811,21052,36169.15
1812,21080,36189.12
1813,21108,36209.09
1814,21124,36229.06
1815,21140,36249.03
1816,21140,36269.01
1817,21140,36288.98
1818,21140,36308.95
1819,21136,36328.92
1820,21144,36348.89
1821,21152,36368.87
1822,21160,36388.84
1823,21180,36408.81
1824,21200,36428.78
1825,21216,36448.75
1826,21236,36468.72
1827,21252,36488.70
1828,21272,36508.67
1829,21292,36528.64
1830,21312,36548.61
1831,21324,36568.58
1832,21340,36588.56
1833,21356,36608.53
1834,21368,36628.50
1835,21332,36648.47
1836,21256,36668.44
1837,21164,36688.42
1838,21084,36708.39
1839,21032,36728.36
1840,21004,36748.33
1841,21000,36768.30
1842,21008,36788.28
1843,21024,36808.25
1844,21048,36828.22
1845,21076,36848.19
1846,21096,36868.16
1847,21112,36888.14
1848,21124,36908.11
1849,21124,36928.08
1850,21120,36948.05
1851,21116,36968.02
1852,21120,36987.99
1853,21124,37007.97
1854,21140,37027.94
1855,21156,37047.91
1856,21172,37067.88
1857,21192,37087.85
1858,21212,37107.83
1859,21236,37127.80
1860,21252,37147.77
1861,21272,37167.74
1862,21288,37187.71
1863,21308,37207.69
1864,21328,37227.66
1865,21340,37247.63
1866,21352,37267.60
1867,21368,37287.57
1868,21364,37307.55
1869,21312,37327.52
1870,21232,37347.49
1871,21140,37367.46
1872,21068,37387.43
1873,21024,37407.41
1874,21008,37427.38
1875,21008,37447.35
1876,21024,37467.32
1877,21040,37487.29
1878,21064,37507.26
1879,21088,37527.24
1880,21112,37547.21
1881,21128,37567.18
1882,21128,37587.15
1883,21128,37607.12
1884,21124,37627.10
1885,21124,37647.07
1886,21124,37667.04
1887,21132,37687.01
1888,21140,37706.98
1889,21160,37726.96
1890,21176,37746.93
1891,21196,37766.90
1892,21212,37786.87
1893,21232,37806.84
1894,21252,37826.82
1895,21264,37846.79
1896,21280,37866.76
1897,21296,37886.73
1898,21312,37906.70
1899,21328,37926.68
1900,21336,37946.65
1901,21320,37966.62
1902,21252,37986.59
1903,21164,38006.56
1904,21080,38026.53
1905,21012,38046.51
1906,20980,38066.48
1907,20972,38086.45
1908,20988,38106.42
1909,21008,38126.39
1910,21032,38146.37
1911,21056,38166.34
1912,21084,38186.31
1913,21104,38206.28
1914,21112,38226.25
1915,21108,38246.23
1916,21104,38266.20
1917,21096,38286.17
1918,21100,38306.14
1919,21112,38326.11
1920,21116,38346.09
1921,21128,38366.06
1922,21144,38386.03
1923,21164,38406.00
1924,21184,38425.97
1925,21200,38445.95
1926,21220,38465.92
1927,21236,38485.89
1928,21260,38505.86
1929,21276,38525.83
1930,21288,38545.80
1931,21304,38565.78
1932,21316,38585.75
1933,21336,38605.72
1934,21332,38625.69
1935,21276,38645.66
1936,21192,38665.64
1937,21096,38685.61
1938,21016,38705.58
1939,20972,38725.55
1940,20960,38745.52
1941,20964,38765.50
1942,20976,38785.47
1943,21004,38805.44
1944,21036,38825.41
1945,21064,38845.38
1946,21084,38865.36
1947,21096,38885.33
1948,21100,38905.30
1949,21100,38925.27
1950,21092,38945.24
1951,21092,38965.21
1952,21100,38985.19
1953,21104,39005.16
1954,21116,39025.13
1955,21132,39045.10
1956,21144,39065.07
1957,21168,39085.05
1958,21184,39105.02
1959,21204,39124.99
1960,21224,39144.96
1961,21244,39164.93
1962,21268,39184.91
1963,21284,39204.88
1964,21304,39224.85
1965,21320,39244.82
1966,21336,39264.79
1967,21352,39284.77
1968,21340,39304.74
1969,21288,39324.71
1970,21196,39344.68
1971,21100,39364.65
1972,21028,39384.63
1973,20980,39404.60
1974,20968,39424.57
1975,20972,39444.54
1976,20988,39464.51
1977,21012,39484.48
1978,21044,39504.46
1979,21076,39524.43
1980,21096,39544.40
1981,21108,39564.37
1982,21116,39584.34
1983,21112,39604.32
1984,21104,39624.29
1985,21100,39644.26
1986,21096,39664.23
1987,21100,39684.20
1988,21112,39704.18
1989,21124,39724.15
1990,21144,39744.12
1991,21164,39764.09
1992,21176,39784.06
1993,21196,39804.04
1994,21212,39824.01
1995,21232,39843.98
1996,21244,39863.95
1997,21260,39883.92
1998,21276,39903.90
1999,21288,39923.87
2000,21308,39943.84
2001,21304,39963.81
2002,21268,39983.78
2003,21188,40003.75
2004,21092,40023.73
2005,21008,40043.70
2006,20948,40063.67
2007,20920,40083.64
2008,20920,40103.61
2009,20944,40123.59
2010,20968,40143.56
2011,20996,40163.53
2012,21024,40183.50
2013,21056,40203.47
2014,21076,40223.45
2015,21084,40243.42
2016,21080,40263.39
2017,21076,40283.36
2018,21076,40303.33
2019,21072,40323.31
2020,21080,40343.28
2021,21088,40363.25
2022,21096,40383.22
2023,21112,40403.19
2024,21128,40423.17
2025,21148,40443.14
2026,21168,40463.11
2027,21184,40483.08
2028,21204,40503.05
2029,21216,40523.02
2030,21232,40543.00
2031,21248,40562.97
2032,21260,40582.94
2033,21276,40602.91
2034,21292,40622.88
2035,21296,40642.86
2036,21256,40662.83
2037,21172,40682.80
2038,21068,40702.77
2039,20976,40722.74
2040,20912,40742.72
2041,20880,40762.69
2042,20880,40782.66
2043,20896,40802.63
2044,20916,40822.60
2045,20944,40842.58
2046,20976,40862.55
2047,20996,40882.52
2048,21020,40902.49
2049,21036,40922.46
2050,21036,40942.43
2051,21028,40962.41
2052,21024,40982.38
2053,21024,41002.35
2054,21036,41022.32
2055,21044,41042.29
2056,21056,41062.27
2057,21076,41082.24
2058,21096,41102.21
2059,21120,41122.18
2060,21140,41142.15
2061,21156,41162.13
2062,21172,41182.10
2063,21192,41202.07
2064,21204,41222.04
2065,21228,41242.01
2066,21240,41261.99
2067,21264,41281.96
2068,21276,41301.93
2069,21256,41321.90
2070,21188,41341.87
2071,21092,41361.85
2072,20996,41381.82
2073,20920,41401.79
2074,20876,41421.76
2075,20868,41441.73
2076,20880,41461.70
2077,20900,41481.68
2078,20928,41501.65
2079,20956,41521.62
2080,20992,41541.59
2081,21016,41561.56
2082,21032,41581.54
2083,21036,41601.51
2084,21040,41621.48
2085,21040,41641.45
2086,21044,41661.42
2087,21044,41681.40
2088,21048,41701.37
2089,21064,41721.34
2090,21080,41741.31
2091,21100,41761.28
2092,21120,41781.26
2093,21140,41801.23
2094,21164,41821.20
2095,21180,41841.17
2096,21200,41861.14
2097,21216,41881.12
2098,21232,41901.09
2099,21248,41921.06
2100,21260,41941.03
2101,21252,41961.00
2102,21200,41980.97
2103,21112,42000.95
2104,21020,42020.92
2105,20944,42040.89
2106,20900,42060.86
2107,20880,42080.83
2108,20884,42100.81
2109,20904,42120.78
2110,20932,42140.75
2111,20968,42160.72
2112,21000,42180.69
2113,21016,42200.67
2114,21028,42220.64
2115,21028,42240.61
2116,21024,42260.58
2117,21008,42280.55
2118,20996,42300.53
2119,20996,42320.50
2120,21012,42340.47
2121,21028,42360.44
2122,21048,42380.41
2123,21060,42400.39
2124,21084,42420.36
2125,21108,42440.33
2126,21124,42460.30
2127,21144,42480.27
2128,21164,42500.24
2129,21180,42520.22
2130,21200,42540.19
2131,21216,42560.16
2132,21208,42580.13
2133,21160,42600.10
2134,21076,42620.08
2135,20976,42640.05
2136,20892,42660.02
2137,20844,42679.99
2138,20824,42699.96
2139,20836,42719.94
2140,20856,42739.91
2141,20880,42759.88
2142,20908,42779.85
2143,20944,42799.82
2144,20968,42819.80
2145,20984,42839.77
2146,20988,42859.74
2147,20988,42879.71
2148,20980,42899.68
2149,20976,42919.65
2150,20980,42939.63
2151,20992,42959.60
2152,21004,42979.57
2153,21020,42999.54
2154,21036,43019.51
2155,21052,43039.49
2156,21068,43059.46
2157,21088,43079.43
2158,21108,43099.40
2159,21128,43119.37
2160,21148,43139.35
2161,21168,43159.32
2162,21188,43179.29
2163,21208,43199.26
2164,21192,43219.23
2165,21116,43239.21
2166,21008,43259.18
2167,20912,43279.15
2168,20848,43299.12
2169,20812,43319.09
2170,20800,43339.07
2171,20816,43359.04
2172,20840,43379.01
2173,20868,43398.98
2174,20900,43418.95
2175,20932,43438.92
2176,20948,43458.90
2177,20964,43478.87
2178,20968,43498.84
2179,20956,43518.81
2180,20952,43538.78
2181,20952,43558.76
2182,20952,43578.73
2183,20944,43598.70
2184,20944,43618.67
2185,20960,43638.64
2186,20980,43658.62
2187,20996,43678.59
2188,21012,43698.56
2189,21028,43718.53
2190,21044,43738.50
2191,21060,43758.48
2192,21076,43778.45
2193,21096,43798.42
2194,21116,43818.39
2195,21116,43838.36
2196,21076,43858.34
2197,20996,43878.31
2198,20904,43898.28
2199,20824,43918.25
2200,20772,43938.22
2201,20752,43958.19
2202,20756,43978.17
2203,20768,43998.14
2204,20788,44018.11
2205,20828,44038.08
2206,20864,44058.05
2207,20888,44078.03
2208,20904,44098.00
2209,20916,44117.97
2210,20916,44137.94
2211,20908,44157.91
2212,20896,44177.89
2213,20888,44197.86
2214,20888,44217.83
2215,20892,44237.80
2216,20896,44257.77
2217,20912,44277.75
2218,20920,44297.72
2219,20928,44317.69
2220,20936,44337.66
2221,20944,44357.63
2222,20960,44377.61
2223,20980,44397.58
2224,20992,44417.55
2225,20968,44437.52
2226,20912,44457.49
2227,20840,44477.46
2228,20764,44497.44
2229,20720,44517.41
2230,20708,44537.38
2231,20712,44557.35
2232,20728,44577.32
2233,20752,44597.30
2234,20784,44617.27
2235,20820,44637.24
2236,20856,44657.21
2237,20880,44677.18
2238,20888,44697.16
2239,20884,44717.13
2240,20884,44737.10
2241,20884,44757.07
2242,20884,44777.04
2243,20888,44797.02
2244,20896,44816.99
2245,20912,44836.96
2246,20928,44856.93
2247,20940,44876.90
2248,20956,44896.87
2249,20968,44916.85
2250,20980,44936.82
2251,21000,44956.79
2252,21016,44976.76
2253,21028,44996.73
2254,21024,45016.71
2255,20976,45036.68
2256,20896,45056.65
2257,20812,45076.62
2258,20736,45096.59
2259,20692,45116.57
2260,20680,45136.54
2261,20688,45156.51
2262,20716,45176.48
2263,20748,45196.45
2264,20780,45216.43
2265,20812,45236.40
2266,20840,45256.37
2267,20860,45276.34
2268,20868,45296.31
2269,20868,45316.29
2270,20868,45336.26
2271,20864,45356.23
2272,20860,45376.20
2273,20876,45396.17
2274,20884,45416.14
2275,20896,45436.12
2276,20916,45456.09
2277,20932,45476.06
2278,20948,45496.03
2279,20964,45516.00
2280,20980,45535.98
2281,21004,45555.95
2282,21028,45575.92
2283,21044,45595.89
2284,21040,45615.86
2285,20992,45635.84
2286,20908,45655.81
2287,20816,45675.78
2288,20752,45695.75
2289,20712,45715.72
2290,20696,45735.70
2291,20704,45755.67
2292,20728,45775.64
2293,20756,45795.61
2294,20796,45815.58
2295,20824,45835.56
2296,20844,45855.53
2297,20848,45875.50
2298,20848,45895.47
2299,20844,45915.44
2300,20836,45935.41
2301,20828,45955.39
2302,20832,45975.36
2303,20836,45995.33
2304,20840,46015.30
2305,20848,46035.27
2306,20864,46055.25
2307,20880,46075.22
2308,20892,46095.19
2309,20900,46115.16
2310,20920,46135.13
2311,20936,46155.11
2312,20960,46175.08
2313,20960,46195.05
2314,20912,46215.02
2315,20840,46234.99
2316,20756,46254.97
2317,20688,46274.94
2318,20644,46294.91
2319,20636,46314.88
2320,20648,46334.85
2321,20672,46354.83
2322,20696,46374.80
2323,20732,46394.77
2324,20764,46414.74
2325,20792,46434.71
2326,20800,46454.68
2327,20800,46474.66
2328,20796,46494.63
2329,20788,46514.60
2330,20784,46534.57
2331,20788,46554.54
2332,20800,46574.52
2333,20812,46594.49
2334,20824,46614.46
2335,20836,46634.43
2336,20848,46654.40
2337,20864,46674.38
2338,20884,46694.35
2339,20900,46714.32
2340,20916,46734.29
2341,20932,46754.26
2342,20936,46774.24
2343,20900,46794.21
2344,20824,46814.18
2345,20748,46834.15
2346,20684,46854.12
2347,20644,46874.10
2348,20640,46894.07
2349,20652,46914.04
2350,20680,46934.01
2351,20712,46953.98
2352,20740,46973.95
2353,20768,46993.93
2354,20796,47013.90
2355,20816,47033.87
2356,20820,47053.84
2357,20816,47073.81
2358,20808,47093.79
2359,20808,47113.76
2360,20812,47133.73
2361,20820,47153.70
2362,20828,47173.67
2363,20836,47193.65
2364,20852,47213.62
2365,20876,47233.59
2366,20888,47253.56
2367,20904,47273.53
2368,20916,47293.51
2369,20932,47313.48
2370,20960,47333.45
2371,20980,47353.42
2372,20980,47373.39
2373,20936,47393.36
2374,20864,47413.34
2375,20784,47433.31
2376,20712,47453.28
2377,20664,47473.25
2378,20644,47493.22
2379,20652,47513.20
2380,20672,47533.17
2381,20700,47553.14
2382,20736,47573.11
2383,20756,47593.08
2384,20760,47613.06
2385,20788,47633.03
2386,20808,47653.00
2387,20808,47672.97
2388,20800,47692.94
2389,20796,47712.92
2390,20804,47732.89
2391,20812,47752.86
2392,20816,47772.83
2393,20820,47792.80
2394,20840,47812.78
2395,20860,47832.75
2396,20876,47852.72
2397,20896,47872.69
2398,20912,47892.66
2399,20924,47912.63
2400,20940,47932.61
2401,20956,47952.58
2402,20960,47972.55
2403,20928,47992.52
2404,20864,48012.49
2405,20784,48032.47
2406,20716,48052.44
2407,20680,48072.41
2408,20668,48092.38
2409,20676,48112.35
2410,20692,48132.33
2411,20724,48152.30
2412,20756,48172.27
2413,20784,48192.24
2414,20804,48212.21
2415,20820,48232.19
2416,20820,48252.16
2417,20816,48272.13
2418,20808,48292.10
2419,20800,48312.07
2420,20800,48332.05
2421,20808,48352.02
2422,20816,48371.99
2423,20824,48391.96
2424,20828,48411.93
2425,20836,48431.90
2426,20852,48451.88
2427,20864,48471.85
2428,20876,48491.82
2429,20896,48511.79
2430,20908,48531.76
2431,20900,48551.74
2432,20860,48571.71
2433,20800,48591.68
2434,20740,48611.65
2435,20692,48631.62
2436,20676,48651.60
2437,20676,48671.57
2438,20688,48691.54
2439,20712,48711.51
2440,20748,48731.48
2441,20780,48751.46
2442,20808,48771.43
2443,20828,48791.40
2444,20832,48811.37
2445,20832,48831.34
2446,20824,48851.32
2447,20824,48871.29
2448,20824,48891.26
2449,20832,48911.23
2450,20836,48931.20
2451,20848,48951.17
2452,20864,48971.15
2453,20884,48991.12
2454,20904,49011.09
2455,20916,49031.06
2456,20932,49051.03
2457,20956,49071.01
2458,20976,49090.98
2459,20984,49110.95
2460,20968,49130.92
2461,20916,49150.89
2462,20844,49170.87
2463,20772,49190.84
2464,20724,49210.81
2465,20704,49230.78
2466,20708,49250.75
2467,20724,49270.73
2468,20752,49290.70
2469,20788,49310.67
2470,20820,49330.64
2471,20848,49350.61
2472,20864,49370.58
2473,20876,49390.56
2474,20884,49410.53
2475,20884,49430.50
2476,20880,49450.47
2477,20876,49470.44
2478,20880,49490.42
2479,20892,49510.39
2480,20908,49530.36
2481,20920,49550.33
2482,20936,49570.30
2483,20952,49590.28
2484,20972,49610.25
2485,20988,49630.22
2486,21008,49650.19
2487,21032,49670.16
2488,21044,49690.14
2489,21036,49710.11
2490,20984,49730.08
2491,20908,49750.05
2492,20836,49770.02
2493,20780,49790.00
2494,20764,49809.97
2495,20756,49829.94
2496,20768,49849.91
2497,20792,49869.88
2498,20828,49889.85
2499,20876,49909.83
2500,20904,49929.80
2501,20924,49949.77
2502,20928,49969.74
2503,20936,49989.71
2504,20936,50009.69
2505,20936,50029.66
2506,20940,50049.63
2507,20944,50069.60
2508,20952,50089.57
2509,20964,50109.55
2510,20980,50129.52
2511,20992,50149.49
2512,21008,50169.46
2513,21028,50189.43
2514,21044,50209.41
2515,21056,50229.38
2516,21076,50249.35
2517,21092,50269.32
2518,21096,50289.29
2519,21060,50309.27
2520,20996,50329.24
2521,20924,50349.21
2522,20864,50369.18
2523,20824,50389.15
2524,20812,50409.12
2525,20816,50429.10
2526,20836,50449.07
2527,20868,50469.04
2528,20900,50489.01
2529,20924,50508.98
2530,20948,50528.96
2531,20956,50548.93
2532,20956,50568.90
2533,20952,50588.87
2534,20940,50608.84
2535,20936,50628.82
2536,20932,50648.79
2537,20940,50668.76
2538,20944,50688.73
2539,20952,50708.70
2540,20964,50728.68
2541,20972,50748.65
2542,20992,50768.62
2543,21008,50788.59
2544,21024,50808.56
2545,21040,50828.54
2546,21036,50848.51
2547,21000,50868.48
2548,20936,50888.45
2549,20868,50908.42
2550,20816,50928.39
2551,20788,50948.37
2552,20784,50968.34
2553,20796,50988.31
2554,20820,51008.28
2555,20848,51028.25
2556,20884,51048.23
2557,20916,51068.20
2558,20936,51088.17
2559,20944,51108.14
2560,20944,51128.11
2561,20936,51148.09
2562,20932,51168.06
2563,20928,51188.03
2564,20936,51208.00
2565,20944,51227.97
2566,20952,51247.95
2567,20964,51267.92
2568,20976,51287.89
2569,20992,51307.86
2570,21012,51327.83
2571,21032,51347.80
2572,21044,51367.78
2573,21060,51387.75
2574,21052,51407.72
2575,21000,51427.69
2576,20924,51447.66
2577,20848,51467.64
2578,20792,51487.61
2579,20764,51507.58
2580,20756,51527.55
2581,20772,51547.52
2582,20792,51567.50
2583,20832,51587.47
2584,20864,51607.44
2585,20888,51627.41
2586,20908,51647.38
2587,20920,51667.36
2588,20924,51687.33
2589,20924,51707.30
2590,20920,51727.27
2591,20924,51747.24
2592,20928,51767.22
2593,20936,51787.19
2594,20948,51807.16
2595,20960,51827.13
2596,20972,51847.10
2597,20988,51867.07
2598,21004,51887.05
2599,21016,51907.02
2600,21036,51926.99
2601,21052,51946.96
2602,21048,51966.93
2603,21016,51986.91
2604,20944,52006.88
2605,20868,52026.85
2606,20804,52046.82
2607,20768,52066.79
2608,20756,52086.77
2609,20764,52106.74
2610,20784,52126.71
2611,20816,52146.68
2612,20848,52166.65
2613,20880,52186.63
2614,20904,52206.60
2615,20920,52226.57
2616,20924,52246.54
2617,20920,52266.51
2618,20916,52286.49
2619,20912,52306.46
2620,20920,52326.43
2621,20924,52346.40
2622,20936,52366.37
2623,20948,52386.34
2624,20964,52406.32
2625,20980,52426.29
2626,20996,52446.26
2627,21012,52466.23
2628,21028,52486.20
2629,21048,52506.18
2630,21044,52526.15
2631,21008,52546.12
2632,20944,52566.09
2633,20872,52586.06
2634,20808,52606.04
2635,20772,52626.01
2636,20764,52645.98
2637,20764,52665.95
2638,20784,52685.92
2639,20816,52705.90
2640,20852,52725.87
2641,20880,52745.84
2642,20896,52765.81
2643,20900,52785.78
2644,20892,52805.76
2645,20876,52825.73
2646,20868,52845.70
2647,20860,52865.67
2648,20860,52885.64
2649,20868,52905.61
2650,20876,52925.59
2651,20896,52945.56
2652,20912,52965.53
2653,20928,52985.50
2654,20944,53005.47
2655,20964,53025.45
2656,20980,53045.42
2657,20988,53065.39
2658,20960,53085.36
2659,20900,53105.33
2660,20828,53125.31
2661,20768,53145.28
2662,20724,53165.25
2663,20708,53185.22
2664,20716,53205.19
2665,20732,53225.17
2666,20760,53245.14
2667,20796,53265.11
2668,20836,53285.08
2669,20856,53305.05
2670,20860,53325.03
2671,20860,53345.00
2672,20860,53364.97
2673,20856,53384.94
2674,20852,53404.91
2675,20848,53424.88
2676,20848,53444.86
2677,20860,53464.83
2678,20884,53484.80
2679,20896,53504.77
2680,20908,53524.74
2681,20924,53544.72
2682,20940,53564.69
2683,20956,53584.66
2684,20976,53604.63
2685,20988,53624.60
2686,20968,53644.58
2687,20908,53664.55
2688,20832,53684.52
2689,20760,53704.49
2690,20712,53724.46
2691,20692,53744.44
2692,20696,53764.41
2693,20716,53784.38
2694,20744,53804.35
2695,20780,53824.32
2696,20808,53844.29
2697,20832,53864.27
2698,20848,53884.24
2699,20856,53904.21
2700,20856,53924.18
2701,20852,53944.15
2702,20848,53964.13
2703,20848,53984.10
2704,20856,54004.07
2705,20868,54024.04
2706,20884,54044.01
2707,20896,54063.99
2708,20908,54083.96
2709,20928,54103.93
2710,20940,54123.90
2711,20960,54143.87
2712,20972,54163.85
2713,20984,54183.82
2714,20996,54203.79
2715,20984,54223.76
2716,20924,54243.73
2717,20848,54263.71
2718,20776,54283.68
2719,20724,54303.65
2720,20700,54323.62
2721,20704,54343.59
2722,20724,54363.56
2723,20760,54383.54
2724,20788,54403.51
2725,20828,54423.48
2726,20848,54443.45
2727,20868,54463.42
2728,20876,54483.40
2729,20872,54503.37
2730,20868,54523.34
2731,20860,54543.31
2732,20856,54563.28
2733,20864,54583.26
2734,20872,54603.23
2735,20888,54623.20
2736,20908,54643.17
2737,20924,54663.14
2738,20936,54683.12
2739,20952,54703.09
2740,20964,54723.06
2741,20984,54743.03
2742,21000,54763.00
2743,21004,54782.98
2744,20980,54802.95
2745,20920,54822.92
2746,20840,54842.89
2747,20776,54862.86
2748,20724,54882.83
2749,20708,54902.81
2750,20708,54922.78
2751,20724,54942.75
2752,20748,54962.72
2753,20780,54982.69
2754,20816,55002.67
2755,20840,55022.64
2756,20852,55042.61
2757,20856,55062.58
2758,20844,55082.55
2759,20836,55102.53
2760,20836,55122.50
2761,20840,55142.47
2762,20844,55162.44
2763,20864,55182.41
2764,20876,55202.39
2765,20888,55222.36
2766,20904,55242.33
2767,20920,55262.30
2768,20940,55282.27
2769,20956,55302.25
2770,20972,55322.22
2771,20988,55342.19
2772,21000,55362.16
2773,20980,55382.13
2774,20920,55402.10
2775,20840,55422.08
2776,20760,55442.05
2777,20712,55462.02
2778,20696,55481.99
2779,20700,55501.96
2780,20724,55521.94
2781,20756,55541.91
2782,20788,55561.88
2783,20816,55581.85
2784,20840,55601.82
2785,20848,55621.80
2786,20852,55641.77
2787,20852,55661.74
2788,20836,55681.71
2789,20832,55701.68
2790,20828,55721.66
2791,20832,55741.63
2792,20844,55761.60
2793,20860,55781.57
2794,20872,55801.54
2795,20880,55821.51
2796,20896,55841.49
2797,20920,55861.46
2798,20936,55881.43
2799,20952,55901.40
2800,20964,55921.37
2801,20980,55941.35
2802,21000,55961.32
2803,21016,55981.29
2804,20992,56001.26
2805,20932,56021.23
2806,20848,56041.21
2807,20768,56061.18
2808,20720,56081.15
2809,20696,56101.12
2810,20700,56121.09
2811,20724,56141.07
2812,20760,56161.04
2813,20788,56181.01
2814,20820,56200.98
2815,20840,56220.95
2816,20864,56240.93
2817,20876,56260.90
2818,20876,56280.87
2819,20860,56300.84
2820,20856,56320.81
2821,20856,56340.78
2822,20860,56360.76
2823,20868,56380.73
2824,20872,56400.70
2825,20888,56420.67
2826,20904,56440.64
2827,20920,56460.62
2828,20932,56480.59
2829,20944,56500.56
2830,20960,56520.53
2831,20984,56540.50
2832,20992,56560.48
2833,21004,56580.45
2834,21004,56600.42
2835,21020,56620.39
2836,21036,56640.36
2837,21016,56660.34
2838,20960,56680.31
2839,20880,56700.28
2840,20796,56720.25
2841,20748,56740.22
2842,20728,56760.20
2843,20732,56780.17
2844,20748,56800.14
2845,20776,56820.11
2846,20808,56840.08
2847,20848,56860.05
2848,20876,56880.03
2849,20892,56900.00
2850,20888,56919.97
2851,20884,56939.94
2852,20872,56959.91
2853,20860,56979.89
2854,20852,56999.86
2855,20848,57019.83
2856,20860,57039.80
2857,20872,57059.77
2858,20892,57079.75
2859,20904,57099.72
2860,20916,57119.69
2861,20924,57139.66
2862,20944,57159.63
2863,20960,57179.61
2864,20964,57199.58
2865,20976,57219.55
2866,20988,57239.52
2867,20996,57259.49
2868,21008,57279.47
2869,21016,57299.44
2870,20988,57319.41
2871,20920,57339.38
2872,20840,57359.35
2873,20772,57379.32
2874,20724,57399.30
2875,20708,57419.27
2876,20716,57439.24
2877,20740,57459.21
2878,20772,57479.18
2879,20808,57499.16
2880,20836,57519.13
2881,20864,57539.10
2882,20884,57559.07
2883,20892,57579.04
2884,20888,57599.02
2885,20884,57618.99
2886,20876,57638.96
2887,20876,57658.93
2888,20884,57678.90
2889,20888,57698.88
2890,20900,57718.85
2891,20916,57738.82
2892,20940,57758.79
2893,20956,57778.76
2894,20976,57798.73
2895,20984,57818.71
2896,20996,57838.68
2897,21012,57858.65
2898,21028,57878.62
2899,21032,57898.59
2900,21048,57918.57
2901,21060,57938.54
2902,21072,57958.51
2903,21080,57978.48
2904,21052,57998.45
2905,20984,58018.43
2906,20896,58038.40
2907,20816,58058.37
2908,20760,58078.34
2909,20736,58098.31
2910,20740,58118.29
2911,20764,58138.26
2912,20792,58158.23
2913,20828,58178.20
2914,20864,58198.17
2915,20892,58218.15
2916,20916,58238.12
2917,20920,58258.09
2918,20916,58278.06
2919,20916,58298.03
2920,20912,58318.00
2921,20908,58337.98
2922,20916,58357.95
2923,20932,58377.92
2924,20948,58397.89
2925,20956,58417.86
2926,20972,58437.84
2927,20996,58457.81
2928,21016,58477.78
2929,21028,58497.75
2930,21044,58517.72
2931,21060,58537.70
2932,21076,58557.67
2933,21088,58577.64
2934,21104,58597.61
2935,21120,58617.58
2936,21132,58637.56
2937,21132,58657.53
2938,21108,58677.50
2939,21044,58697.47
2940,20964,58717.44
2941,20888,58737.42
2942,20828,58757.39
2943,20800,58777.36
2944,20804,58797.33
2945,20824,58817.30
2946,20844,58837.27
2947,20880,58857.25
2948,20908,58877.22
2949,20936,58897.19
2950,20960,58917.16
2951,20968,58937.13
2952,20964,58957.11
2953,20952,58977.08
2954,20940,58997.05
2955,20936,59017.02
2956,20936,59036.99
2957,20944,59056.97
2958,20952,59076.94
2959,20964,59096.91
2960,20984,59116.88
2961,21000,59136.85
2962,21016,59156.83
2963,21032,59176.80
2964,21048,59196.77
2965,21060,59216.74
2966,21068,59236.71
2967,21072,59256.69
2968,21060,59276.66
2969,21012,59296.63
2970,20944,59316.60
2971,20872,59336.57
2972,20816,59356.54
2973,20784,59376.52
2974,20780,59396.49
2975,20796,59416.46
2976,20812,59436.43
2977,20844,59456.40
2978,20884,59476.38
2979,20912,59496.35
2980,20936,59516.32
2981,20952,59536.29
2982,20956,59556.26
2983,20948,59576.24
2984,20936,59596.21
2985,20924,59616.18
2986,20920,59636.15
2987,20932,59656.12
2988,20948,59676.10
2989,20968,59696.07
2990,20972,59716.04
2991,20988,59736.01
2992,21008,59755.98
2993,21028,59775.96
2994,21048,59795.93
2995,21056,59815.90
2996,21072,59835.87
2997,21088,59855.84
2998,21080,59875.81
2999,21028,59895.79
