Sample_Index,IR_Value,Timestamp_ms
0,18568,0.00
1,19220,10.00
2,19588,20.00
3,19728,30.00
4,19532,40.00
5,19768,50.00
6,20084,60.00
7,20528,70.00
8,21068,80.00
9,21764,90.00
10,22408,100.00
11,22984,110.00
12,23456,120.00
13,23812,130.00
14,24008,140.00
15,24196,150.00
16,24356,160.00
17,24516,170.00
18,24648,180.00
19,24740,190.00
20,24780,200.00
21,24796,210.00
22,24796,220.00
23,24800,230.00
24,24820,240.00
25,24860,250.00
26,24904,260.00
27,24952,270.00
28,24988,280.00
29,25028,290.00
30,25072,300.00
31,25112,310.00
32,25140,320.00
33,25180,330.00
34,25204,340.00
35,25220,350.00
36,25240,360.00
37,25240,370.00
38,25248,380.00
39,25268,390.00
40,25268,400.00
41,25272,410.00
42,25280,420.00
43,25280,430.00
44,25288,440.00
45,25284,450.00
46,25280,460.00
47,25276,470.00
48,25244,480.00
49,25180,490.00
50,25080,500.00
51,24956,510.00
52,24824,520.00
53,24708,530.00
54,24632,540.00
55,24592,550.00
56,24572,560.00
57,24560,570.00
58,24560,580.00
59,24564,590.00
60,24560,600.00
61,24544,610.00
62,24528,620.00
63,24512,630.00
64,24496,640.00
65,24484,650.00
66,24484,660.00
67,24496,670.00
68,24504,680.00
69,24500,690.00
70,24508,700.00
71,24520,710.00
72,24536,720.00
73,24548,730.00
74,24548,740.00
75,24568,750.00
76,24588,760.00
77,24616,770.00
78,24632,780.00
79,24624,790.00
80,24640,800.00
81,24644,810.00
82,24660,820.00
83,24684,830.00
84,24708,840.00
85,24724,850.00
86,24744,860.00
87,24768,870.00
88,24796,880.00
89,24824,890.00
90,24844,900.00
91,24852,910.00
92,24832,920.00
93,24768,930.00
94,24656,940.00
95,24516,950.00
96,24372,960.00
97,24244,970.00
98,24160,980.00
99,24132,990.00
100,24140,1000.00
101,24156,1010.00
102,24180,1020.00
103,24216,1030.00
104,24248,1040.00
105,24280,1050.00
106,24296,1060.00
107,24308,1070.00
108,24296,1080.00
109,24276,1090.00
110,24256,1100.00
111,24248,1110.00
112,24252,1120.00
113,24260,1130.00
114,24272,1140.00
115,24296,1150.00
116,24316,1160.00
117,24336,1170.00
118,24352,1180.00
119,24380,1190.00
120,24408,1200.00
121,24428,1210.00
122,24452,1220.00
123,24468,1230.00
124,24488,1240.00
125,24512,1250.00
126,24540,1260.00
127,24564,1270.00
128,24584,1280.00
129,24596,1290.00
130,24604,1300.00
131,24620,1310.00
132,24632,1320.00
133,24608,1330.00
134,24536,1340.00
135,24424,1350.00
136,24284,1360.00
137,24160,1370.00
138,24068,1380.00
139,24028,1390.00
140,24008,1400.00
141,24020,1410.00
142,24036,1420.00
143,24064,1430.00
144,24104,1440.00
145,24136,1450.00
146,24160,1460.00
147,24168,1470.00
148,24168,1480.00
149,24164,1490.00
150,24156,1500.00
151,24148,1510.00
152,24144,1520.00
153,24148,1530.00
154,24152,1540.00
155,24168,1550.00
156,24188,1560.00
157,24220,1570.00
158,24252,1580.00
159,24276,1590.00
160,24300,1600.00
161,24324,1610.00
162,24344,1620.00
163,24368,1630.00
164,24388,1640.00
165,24404,1650.00
166,24420,1660.00
167,24432,1670.00
168,24440,1680.00
169,24440,1690.00
170,24392,1700.00
171,24308,1710.00
172,24188,1720.00
173,24060,1730.00
174,23956,1740.00
175,23888,1750.00
176,23856,1760.00
177,23860,1770.00
178,23880,1780.00
179,23916,1790.00
180,23960,1800.00
181,24000,1810.00
182,24036,1820.00
183,24052,1830.00
184,24060,1840.00
185,24060,1850.00
186,24056,1860.00
187,24052,1870.00
188,24044,1880.00
189,24044,1890.00
190,24056,1900.00
191,24076,1910.00
192,24100,1920.00
193,24128,1930.00
194,24152,1940.00
195,24176,1950.00
196,24196,1960.00
197,24224,1970.00
198,24248,1980.00
199,24272,1990.00
200,24288,2000.00
201,24304,2010.00
202,24320,2020.00
203,24328,2030.00
204,24328,2040.00
205,24292,2050.00
206,24208,2060.00
207,24080,2070.00
208,23936,2080.00
209,23812,2090.00
210,23732,2100.00
211,23700,2110.00
212,23704,2120.00
213,23720,2130.00
214,23744,2140.00
215,23776,2150.00
216,23812,2160.00
217,23844,2170.00
218,23868,2180.00
219,23876,2190.00
220,23868,2200.00
221,23844,2210.00
222,23828,2220.00
223,23804,2230.00
224,23784,2240.00
225,23772,2250.00
226,23760,2260.00
227,23748,2270.00
228,23740,2280.00
229,23760,2290.00
230,23800,2300.00
231,23832,2310.00
232,23868,2320.00
233,23896,2330.00
234,23916,2340.00
235,23932,2350.00
236,23948,2360.00
237,23952,2370.00
238,23952,2380.00
239,23936,2390.00
240,23912,2400.00
241,23896,2410.00
242,23888,2420.00
243,23916,2430.00
244,23960,2440.00
245,24000,2450.00
246,24020,2460.00
247,23992,2470.00
248,23884,2480.00
249,23728,2490.00
250,23536,2500.00
251,23344,2510.00
252,23228,2520.00
253,23196,2530.00
254,23232,2540.00
255,23288,2550.00
256,23348,2560.00
257,23400,2570.00
258,23460,2580.00
259,23520,2590.00
260,23572,2600.00
261,23604,2610.00
262,23628,2620.00
263,23644,2630.00
264,23664,2640.00
265,23688,2650.00
266,23712,2660.00
267,23732,2670.00
268,23748,2680.00
269,23784,2690.00
270,23824,2700.00
271,23872,2710.00
272,23912,2720.00
273,23948,2730.00
274,23976,2740.00
275,24012,2750.00
276,24044,2760.00
277,24072,2770.00
278,24096,2780.00
279,24116,2790.00
280,24128,2800.00
281,24140,2810.00
282,24152,2820.00
283,24172,2830.00
284,24188,2840.00
285,24200,2850.00
286,24208,2860.00
287,24224,2870.00
288,24240,2880.00
289,24256,2890.00
290,24272,2900.00
291,24288,2910.00
292,24280,2920.00
293,24204,2930.00
294,24072,2940.00
295,23900,2950.00
296,23744,2960.00
297,23628,2970.00
298,23568,2980.00
299,23552,2990.00
300,23564,3000.00
301,23592,3010.00
302,23620,3020.00
303,23652,3030.00
304,23688,3040.00
305,23728,3050.00
306,23764,3060.00
307,23780,3070.00
308,23796,3080.00
309,23792,3090.00
310,23788,3100.00
311,23784,3110.00
312,23788,3120.00
313,23808,3130.00
314,23828,3140.00
315,23856,3150.00
316,23884,3160.00
317,23908,3170.00
318,23940,3180.00
319,23968,3190.00
320,23992,3200.00
321,24020,3210.00
322,24040,3220.00
323,24064,3230.00
324,24080,3240.00
325,24096,3250.00
326,24112,3260.00
327,24124,3270.00
328,24136,3280.00
329,24148,3290.00
330,24172,3300.00
331,24188,3310.00
332,24208,3320.00
333,24232,3330.00
334,24256,3340.00
335,24276,3350.00
336,24300,3360.00
337,24316,3370.00
338,24340,3380.00
339,24364,3390.00
340,24392,3400.00
341,24420,3410.00
342,24440,3420.00
343,24436,3430.00
344,24368,3440.00
345,24236,3450.00
346,24064,3460.00
347,23896,3470.00
348,23764,3480.00
349,23688,3490.00
350,23672,3500.00
351,23692,3510.00
352,23720,3520.00
353,23752,3530.00
354,23780,3540.00
355,23816,3550.00
356,23856,3560.00
357,23884,3570.00
358,23896,3580.00
359,23900,3590.00
360,23896,3600.00
361,23888,3610.00
362,23880,3620.00
363,23880,3630.00
364,23888,3640.00
365,23908,3650.00
366,23928,3660.00
367,23960,3670.00
368,23996,3680.00
369,24028,3690.00
370,24056,3700.00
371,24084,3710.00
372,24112,3720.00
373,24128,3730.00
374,24152,3740.00
375,24164,3750.00
376,24188,3760.00
377,24204,3770.00
378,24220,3780.00
379,24236,3790.00
380,24252,3800.00
381,24268,3810.00
382,24288,3820.00
383,24308,3830.00
384,24328,3840.00
385,24352,3850.00
386,24368,3860.00
387,24392,3870.00
388,24412,3880.00
389,24436,3890.00
390,24456,3900.00
391,24452,3910.00
392,24400,3920.00
393,24288,3930.00
394,24132,3940.00
395,23968,3950.00
396,23832,3960.00
397,23748,3970.00
398,23716,3980.00
399,23720,3990.00
400,23740,4000.00
401,23768,4010.00
402,23800,4020.00
403,23840,4030.00
404,23876,4040.00
405,23900,4050.00
406,23908,4060.00
407,23904,4070.00
408,23888,4080.00
409,23876,4090.00
410,23864,4100.00
411,23864,4110.00
412,23880,4120.00
413,23896,4130.00
414,23928,4140.00
415,23956,4150.00
416,23984,4160.00
417,24012,4170.00
418,24040,4180.00
419,24064,4190.00
420,24088,4200.00
421,24112,4210.00
422,24128,4220.00
423,24148,4230.00
424,24168,4240.00
425,24188,4250.00
426,24200,4260.00
427,24220,4270.00
428,24236,4280.00
429,24252,4290.00
430,24272,4300.00
431,24292,4310.00
432,24320,4320.00
433,24340,4330.00
434,24360,4340.00
435,24364,4350.00
436,24300,4360.00
437,24180,4370.00
438,24028,4380.00
439,23876,4390.00
440,23740,4400.00
441,23664,4410.00
442,23636,4420.00
443,23632,4430.00
444,23644,4440.00
445,23660,4450.00
446,23684,4460.00
447,23712,4470.00
448,23748,4480.00
449,23772,4490.00
450,23788,4500.00
451,23800,4510.00
452,23800,4520.00
453,23804,4530.00
454,23804,4540.00
455,23804,4550.00
456,23812,4560.00
457,23828,4570.00
458,23856,4580.00
459,23892,4590.00
460,23928,4600.00
461,23968,4610.00
462,24008,4620.00
463,24040,4630.00
464,24072,4640.00
465,24096,4650.00
466,24124,4660.00
467,24144,4670.00
468,24160,4680.00
469,24176,4690.00
470,24192,4700.00
471,24204,4710.00
472,24212,4720.00
473,24228,4730.00
474,24240,4740.00
475,24264,4750.00
476,24276,4760.00
477,24296,4770.00
478,24308,4780.00
479,24276,4790.00
480,24180,4800.00
481,24036,4810.00
482,23884,4820.00
483,23752,4830.00
484,23660,4840.00
485,23632,4850.00
486,23632,4860.00
487,23656,4870.00
488,23680,4880.00
489,23712,4890.00
490,23740,4900.00
491,23776,4910.00
492,23812,4920.00
493,23836,4930.00
494,23856,4940.00
495,23864,4950.00
496,23872,4960.00
497,23884,4970.00
498,23888,4980.00
499,23900,4990.00
500,23916,5000.00
501,23940,5010.00
502,23964,5020.00
503,23992,5030.00
504,24020,5040.00
505,24048,5050.00
506,24076,5060.00
507,24108,5070.00
508,24132,5080.00
509,24160,5090.00
510,24180,5100.00
511,24200,5110.00
512,24212,5120.00
513,24232,5130.00
514,24248,5140.00
515,24264,5150.00
516,24280,5160.00
517,24300,5170.00
518,24320,5180.00
519,24340,5190.00
520,24352,5200.00
521,24328,5210.00
522,24244,5220.00
523,24112,5230.00
524,23952,5240.00
525,23812,5250.00
526,23708,5260.00
527,23660,5270.00
528,23656,5280.00
529,23676,5290.00
530,23704,5300.00
531,23736,5310.00
532,23776,5320.00
533,23816,5330.00
534,23848,5340.00
535,23872,5350.00
536,23888,5360.00
537,23892,5370.00
538,23884,5380.00
539,23876,5390.00
540,23868,5400.00
541,23872,5410.00
542,23888,5420.00
543,23904,5430.00
544,23928,5440.00
545,23956,5450.00
546,23988,5460.00
547,24020,5470.00
548,24048,5480.00
549,24076,5490.00
550,24100,5500.00
551,24120,5510.00
552,24144,5520.00
553,24156,5530.00
554,24168,5540.00
555,24180,5550.00
556,24192,5560.00
557,24208,5570.00
558,24228,5580.00
559,24248,5590.00
560,24260,5600.00
561,24248,5610.00
562,24168,5620.00
563,24052,5630.00
564,23920,5640.00
565,23796,5650.00
566,23724,5660.00
567,23680,5670.00
568,23692,5680.00
569,23712,5690.00
570,23748,5700.00
571,23780,5710.00
572,23820,5720.00
573,23860,5730.00
574,23892,5740.00
575,23920,5750.00
576,23932,5760.00
577,23940,5770.00
578,23936,5780.00
579,23928,5790.00
580,23932,5800.00
581,23936,5810.00
582,23956,5820.00
583,23972,5830.00
584,24000,5840.00
585,24040,5850.00
586,24076,5860.00
587,24112,5870.00
588,24140,5880.00
589,24172,5890.00
590,24200,5900.00
591,24224,5910.00
592,24240,5920.00
593,24260,5930.00
594,24276,5940.00
595,24296,5950.00
596,24312,5960.00
597,24336,5970.00
598,24356,5980.00
599,24380,5990.00
600,24404,6000.00
601,24424,6010.00
602,24412,6020.00
603,24348,6030.00
604,24240,6040.00
605,24112,6050.00
606,23996,6060.00
607,23912,6070.00
608,23872,6080.00
609,23864,6090.00
610,23876,6100.00
611,23896,6110.00
612,23912,6120.00
613,23936,6130.00
614,23964,6140.00
615,24000,6150.00
616,24024,6160.00
617,24040,6170.00
618,24052,6180.00
619,24056,6190.00
620,24056,6200.00
621,24064,6210.00
622,24072,6220.00
623,24088,6230.00
624,24108,6240.00
625,24136,6250.00
626,24164,6260.00
627,24196,6270.00
628,24220,6280.00
629,24248,6290.00
630,24276,6300.00
631,24300,6310.00
632,24320,6320.00
633,24336,6330.00
634,24356,6340.00
635,24376,6350.00
636,24400,6360.00
637,24416,6370.00
638,24436,6380.00
639,24456,6390.00
640,24472,6400.00
641,24492,6410.00
642,24512,6420.00
643,24532,6430.00
644,24556,6440.00
645,24584,6450.00
646,24604,6460.00
647,24612,6470.00
648,24580,6480.00
649,24500,6490.00
650,24392,6500.00
651,24280,6510.00
652,24184,6520.00
653,24120,6530.00
654,24092,6540.00
655,24096,6550.00
656,24108,6560.00
657,24128,6570.00
658,24140,6580.00
659,24160,6590.00
660,24184,6600.00
661,24204,6610.00
662,24220,6620.00
663,24236,6630.00
664,24244,6640.00
665,24248,6650.00
666,24248,6660.00
667,24252,6670.00
668,24256,6680.00
669,24272,6690.00
670,24284,6700.00
671,24300,6710.00
672,24324,6720.00
673,24348,6730.00
674,24372,6740.00
675,24392,6750.00
676,24420,6760.00
677,24440,6770.00
678,24460,6780.00
679,24476,6790.00
680,24492,6800.00
681,24512,6810.00
682,24532,6820.00
683,24544,6830.00
684,24564,6840.00
685,24584,6850.00
686,24604,6860.00
687,24624,6870.00
688,24640,6880.00
689,24660,6890.00
690,24680,6900.00
691,24700,6910.00
692,24716,6920.00
693,24740,6930.00
694,24752,6940.00
695,24732,6950.00
696,24660,6960.00
697,24568,6970.00
698,24468,6980.00
699,24376,6990.00
700,24308,7000.00
701,24272,7010.00
702,24264,7020.00
703,24272,7030.00
704,24284,7040.00
705,24296,7050.00
706,24308,7060.00
707,24328,7070.00
708,24344,7080.00
709,24360,7090.00
710,24360,7100.00
711,24364,7110.00
712,24360,7120.00
713,24356,7130.00
714,24356,7140.00
715,24360,7150.00
716,24372,7160.00
717,24384,7170.00
718,24400,7180.00
719,24420,7190.00
720,24440,7200.00
721,24456,7210.00
722,24476,7220.00
723,24496,7230.00
724,24520,7240.00
725,24536,7250.00
726,24552,7260.00
727,24568,7270.00
728,24584,7280.00
729,24600,7290.00
730,24616,7300.00
731,24628,7310.00
732,24644,7320.00
733,24660,7330.00
734,24672,7340.00
735,24688,7350.00
736,24704,7360.00
737,24724,7370.00
738,24736,7380.00
739,24752,7390.00
740,24768,7400.00
741,24784,7410.00
742,24804,7420.00
743,24808,7430.00
744,24768,7440.00
745,24696,7450.00
746,24600,7460.00
747,24492,7470.00
748,24408,7480.00
749,24344,7490.00
750,24308,7500.00
751,24300,7510.00
752,24304,7520.00
753,24308,7530.00
754,24320,7540.00
755,24336,7550.00
756,24352,7560.00
757,24360,7570.00
758,24364,7580.00
759,24360,7590.00
760,24356,7600.00
761,24344,7610.00
762,24332,7620.00
763,24332,7630.00
764,24336,7640.00
765,24344,7650.00
766,24356,7660.00
767,24376,7670.00
768,24396,7680.00
769,24412,7690.00
770,24432,7700.00
771,24448,7710.00
772,24464,7720.00
773,24480,7730.00
774,24496,7740.00
775,24512,7750.00
776,24524,7760.00
777,24536,7770.00
778,24548,7780.00
779,24556,7790.00
780,24568,7800.00
781,24576,7810.00
782,24596,7820.00
783,24608,7830.00
784,24624,7840.00
785,24640,7850.00
786,24656,7860.00
787,24648,7870.00
788,24596,7880.00
789,24516,7890.00
790,24420,7900.00
791,24324,7910.00
792,24248,7920.00
793,24196,7930.00
794,24180,7940.00
795,24180,7950.00
796,24188,7960.00
797,24204,7970.00
798,24220,7980.00
799,24244,7990.00
800,24256,8000.00
801,24264,8010.00
802,24268,8020.00
803,24264,8030.00
804,24260,8040.00
805,24248,8050.00
806,24248,8060.00
807,24252,8070.00
808,24260,8080.00
809,24276,8090.00
810,24296,8100.00
811,24312,8110.00
812,24336,8120.00
813,24360,8130.00
814,24376,8140.00
815,24396,8150.00
816,24412,8160.00
817,24428,8170.00
818,24440,8180.00
819,24456,8190.00
820,24464,8200.00
821,24476,8210.00
822,24488,8220.00
823,24504,8230.00
824,24516,8240.00
825,24532,8250.00
826,24552,8260.00
827,24564,8270.00
828,24564,8280.00
829,24524,8290.00
830,24444,8300.00
831,24328,8310.00
832,24220,8320.00
833,24116,8330.00
834,24048,8340.00
835,24012,8350.00
836,24004,8360.00
837,24000,8370.00
838,24004,8380.00
839,24012,8390.00
840,24016,8400.00
841,24032,8410.00
842,24048,8420.00
843,24056,8430.00
844,24060,8440.00
845,24060,8450.00
846,24048,8460.00
847,24044,8470.00
848,24044,8480.00
849,24052,8490.00
850,24060,8500.00
851,24076,8510.00
852,24096,8520.00
853,24116,8530.00
854,24140,8540.00
855,24164,8550.00
856,24184,8560.00
857,24204,8570.00
858,24220,8580.00
859,24232,8590.00
860,24252,8600.00
861,24260,8610.00
862,24276,8620.00
863,24292,8630.00
864,24300,8640.00
865,24320,8650.00
866,24328,8660.00
867,24344,8670.00
868,24360,8680.00
869,24376,8690.00
870,24392,8700.00
871,24404,8710.00
872,24404,8720.00
873,24356,8730.00
874,24264,8740.00
875,24140,8750.00
876,24012,8760.00
877,23904,8770.00
878,23828,8780.00
879,23784,8790.00
880,23776,8800.00
881,23768,8810.00
882,23776,8820.00
883,23780,8830.00
884,23792,8840.00
885,23816,8850.00
886,23836,8860.00
887,23852,8870.00
888,23860,8880.00
889,23860,8890.00
890,23856,8900.00
891,23856,8910.00
892,23860,8920.00
893,23868,8930.00
894,23884,8940.00
895,23912,8950.00
896,23936,8960.00
897,23960,8970.00
898,23980,8980.00
899,24012,8990.00
900,24032,9000.00
901,24052,9010.00
902,24076,9020.00
903,24096,9030.00
904,24116,9040.00
905,24128,9050.00
906,24144,9060.00
907,24156,9070.00
908,24168,9080.00
909,24184,9090.00
910,24200,9100.00
911,24216,9110.00
912,24228,9120.00
913,24252,9130.00
914,24268,9140.00
915,24288,9150.00
916,24304,9160.00
917,24320,9170.00
918,24340,9180.00
919,24356,9190.00
920,24372,9200.00
921,24392,9210.00
922,24392,9220.00
923,24340,9230.00
924,24232,9240.00
925,24092,9250.00
926,23952,9260.00
927,23832,9270.00
928,23760,9280.00
929,23728,9290.00
930,23724,9300.00
931,23732,9310.00
932,23748,9320.00
933,23764,9330.00
934,23784,9340.00
935,23808,9350.00
936,23828,9360.00
937,23836,9370.00
938,23840,9380.00
939,23832,9390.00
940,23824,9400.00
941,23820,9410.00
942,23828,9420.00
943,23836,9430.00
944,23852,9440.00
945,23876,9450.00
946,23900,9460.00
947,23928,9470.00
948,23952,9480.00
949,23972,9490.00
950,23996,9500.00
951,24008,9510.00
952,24028,9520.00
953,24044,9530.00
954,24060,9540.00
955,24076,9550.00
956,24092,9560.00
957,24100,9570.00
958,24116,9580.00
959,24132,9590.00
960,24148,9600.00
961,24164,9610.00
962,24184,9620.00
963,24200,9630.00
964,24220,9640.00
965,24240,9650.00
966,24260,9660.00
967,24280,9670.00
968,24300,9680.00
969,24320,9690.00
970,24328,9700.00
971,24280,9710.00
972,24180,9720.00
973,24040,9730.00
974,23892,9740.00
975,23768,9750.00
976,23688,9760.00
977,23656,9770.00
978,23656,9780.00
979,23672,9790.00
980,23692,9800.00
981,23716,9810.00
982,23740,9820.00
983,23772,9830.00
984,23796,9840.00
985,23808,9850.00
986,23812,9860.00
987,23808,9870.00
988,23792,9880.00
989,23788,9890.00
990,23788,9900.00
991,23800,9910.00
992,23816,9920.00
993,23840,9930.00
994,23868,9940.00
995,23900,9950.00
996,23924,9960.00
997,23952,9970.00
998,23976,9980.00
999,23992,9990.00
1000,24016,10000.00
1001,24036,10010.00
1002,24052,10020.00
1003,24068,10030.00
1004,24088,10040.00
1005,24104,10050.00
1006,24120,10060.00
1007,24136,10070.00
1008,24152,10080.00
1009,24176,10090.00
1010,24192,10100.00
1011,24216,10110.00
1012,24240,10120.00
1013,24264,10130.00
1014,24284,10140.00
1015,24308,10150.00
1016,24324,10160.00
1017,24344,10170.00
1018,24360,10180.00
1019,24380,10190.00
1020,24400,10200.00
1021,24416,10210.00
1022,24436,10220.00
1023,24440,10230.00
1024,24388,10240.00
1025,24276,10250.00
1026,24116,10260.00
1027,23944,10270.00
1028,23792,10280.00
1029,23688,10290.00
1030,23648,10300.00
1031,23644,10310.00
1032,23660,10320.00
1033,23676,10330.00
1034,23688,10340.00
1035,23700,10350.00
1036,23720,10360.00
1037,23740,10370.00
1038,23760,10380.00
1039,23772,10390.00
1040,23780,10400.00
1041,23776,10410.00
1042,23776,10420.00
1043,23776,10430.00
1044,23788,10440.00
1045,23800,10450.00
1046,23824,10460.00
1047,23852,10470.00
1048,23880,10480.00
1049,23912,10490.00
1050,23936,10500.00
1051,23968,10510.00
1052,23992,10520.00
1053,24016,10530.00
1054,24040,10540.00
1055,24056,10550.00
1056,24072,10560.00
1057,24088,10570.00
1058,24104,10580.00
1059,24120,10590.00
1060,24136,10600.00
1061,24156,10610.00
1062,24176,10620.00
1063,24200,10630.00
1064,24216,10640.00
1065,24240,10650.00
1066,24256,10660.00
1067,24272,10670.00
1068,24288,10680.00
1069,24312,10690.00
1070,24328,10700.00
1071,24348,10710.00
1072,24364,10720.00
1073,24388,10730.00
1074,24412,10740.00
1075,24424,10750.00
1076,24396,10760.00
1077,24308,10770.00
1078,24164,10780.00
1079,24000,10790.00
1080,23848,10800.00
1081,23736,10810.00
1082,23684,10820.00
1083,23676,10830.00
1084,23692,10840.00
1085,23716,10850.00
1086,23740,10860.00
1087,23764,10870.00
1088,23788,10880.00
1089,23820,10890.00
1090,23840,10900.00
1091,23852,10910.00
1092,23856,10920.00
1093,23856,10930.00
1094,23848,10940.00
1095,23844,10950.00
1096,23848,10960.00
1097,23860,10970.00
1098,23880,10980.00
1099,23904,10990.00
1100,23932,11000.00
1101,23964,11010.00
1102,23992,11020.00
1103,24024,11030.00
1104,24052,11040.00
1105,24076,11050.00
1106,24092,11060.00
1107,24104,11070.00
1108,24116,11080.00
1109,24124,11090.00
1110,24132,11100.00
1111,24140,11110.00
1112,24148,11120.00
1113,24156,11130.00
1114,24168,11140.00
1115,24180,11150.00
1116,24188,11160.00
1117,24200,11170.00
1118,24220,11180.00
1119,24236,11190.00
1120,24260,11200.00
1121,24288,11210.00
1122,24312,11220.00
1123,24316,11230.00
1124,24276,11240.00
1125,24176,11250.00
1126,24044,11260.00
1127,23904,11270.00
1128,23792,11280.00
1129,23720,11290.00
1130,23696,11300.00
1131,23712,11310.00
1132,23744,11320.00
1133,23784,11330.00
1134,23824,11340.00
1135,23864,11350.00
1136,23888,11360.00
1137,23904,11370.00
1138,23896,11380.00
1139,23884,11390.00
1140,23860,11400.00
1141,23832,11410.00
1142,23820,11420.00
1143,23816,11430.00
1144,23824,11440.00
1145,23844,11450.00
1146,23872,11460.00
1147,23892,11470.00
1148,23916,11480.00
1149,23940,11490.00
1150,23968,11500.00
1151,23988,11510.00
1152,24012,11520.00
1153,24028,11530.00
1154,24040,11540.00
1155,24052,11550.00
1156,24060,11560.00
1157,24068,11570.00
1158,24076,11580.00
1159,24084,11590.00
1160,24096,11600.00
1161,24112,11610.00
1162,24128,11620.00
1163,24140,11630.00
1164,24152,11640.00
1165,24116,11650.00
1166,24020,11660.00
1167,23876,11670.00
1168,23724,11680.00
1169,23592,11690.00
1170,23508,11700.00
1171,23480,11710.00
1172,23484,11720.00
1173,23516,11730.00
1174,23548,11740.00
1175,23572,11750.00
1176,23604,11760.00
1177,23640,11770.00
1178,23664,11780.00
1179,23688,11790.00
1180,23700,11800.00
1181,23704,11810.00
1182,23700,11820.00
1183,23696,11830.00
1184,23692,11840.00
1185,23696,11850.00
1186,23712,11860.00
1187,23736,11870.00
1188,23768,11880.00
1189,23800,11890.00
1190,23836,11900.00
1191,23868,11910.00
1192,23900,11920.00
1193,23924,11930.00
1194,23948,11940.00
1195,23960,11950.00
1196,23976,11960.00
1197,23996,11970.00
1198,24020,11980.00
1199,24044,11990.00
1200,24060,12000.00
1201,24076,12010.00
1202,24064,12020.00
1203,23996,12030.00
1204,23868,12040.00
1205,23716,12050.00
1206,23572,12060.00
1207,23476,12070.00
1208,23436,12080.00
1209,23440,12090.00
1210,23464,12100.00
1211,23492,12110.00
1212,23520,12120.00
1213,23544,12130.00
1214,23576,12140.00
1215,23612,12150.00
1216,23644,12160.00
1217,23668,12170.00
1218,23684,12180.00
1219,23692,12190.00
1220,23692,12200.00
1221,23696,12210.00
1222,23700,12220.00
1223,23712,12230.00
1224,23736,12240.00
1225,23764,12250.00
1226,23788,12260.00
1227,23820,12270.00
1228,23848,12280.00
1229,23876,12290.00
1230,23908,12300.00
1231,23928,12310.00
1232,23952,12320.00
1233,23968,12330.00
1234,23980,12340.00
1235,23996,12350.00
1236,24012,12360.00
1237,24032,12370.00
1238,24048,12380.00
1239,24068,12390.00
1240,24072,12400.00
1241,24016,12410.00
1242,23908,12420.00
1243,23760,12430.00
1244,23604,12440.00
1245,23492,12450.00
1246,23432,12460.00
1247,23424,12470.00
1248,23440,12480.00
1249,23464,12490.00
1250,23484,12500.00
1251,23508,12510.00
1252,23540,12520.00
1253,23572,12530.00
1254,23608,12540.00
1255,23636,12550.00
1256,23652,12560.00
1257,23656,12570.00
1258,23660,12580.00
1259,23656,12590.00
1260,23660,12600.00
1261,23672,12610.00
1262,23688,12620.00
1263,23716,12630.00
1264,23744,12640.00
1265,23772,12650.00
1266,23800,12660.00
1267,23824,12670.00
1268,23848,12680.00
1269,23868,12690.00
1270,23888,12700.00
1271,23904,12710.00
1272,23920,12720.00
1273,23940,12730.00
1274,23956,12740.00
1275,23972,12750.00
1276,23988,12760.00
1277,24008,12770.00
1278,24024,12780.00
1279,24040,12790.00
1280,24060,12800.00
1281,24080,12810.00
1282,24100,12820.00
1283,24120,12830.00
1284,24140,12840.00
1285,24164,12850.00
1286,24184,12860.00
1287,24196,12870.00
1288,24152,12880.00
1289,24048,12890.00
1290,23880,12900.00
1291,23708,12910.00
1292,23568,12920.00
1293,23488,12930.00
1294,23464,12940.00
1295,23472,12950.00
1296,23500,12960.00
1297,23520,12970.00
1298,23536,12980.00
1299,23560,12990.00
1300,23596,13000.00
1301,23632,13010.00
1302,23660,13020.00
1303,23676,13030.00
1304,23684,13040.00
1305,23680,13050.00
1306,23676,13060.00
1307,23676,13070.00
1308,23680,13080.00
1309,23704,13090.00
1310,23728,13100.00
1311,23756,13110.00
1312,23788,13120.00
1313,23816,13130.00
1314,23840,13140.00
1315,23872,13150.00
1316,23896,13160.00
1317,23920,13170.00
1318,23936,13180.00
1319,23960,13190.00
1320,23976,13200.00
1321,23996,13210.00
1322,24016,13220.00
1323,24032,13230.00
1324,24052,13240.00
1325,24072,13250.00
1326,24092,13260.00
1327,24112,13270.00
1328,24136,13280.00
1329,24160,13290.00
1330,24184,13300.00
1331,24208,13310.00
1332,24232,13320.00
1333,24252,13330.00
1334,24224,13340.00
1335,24148,13350.00
1336,24028,13360.00
1337,23892,13370.00
1338,23780,13380.00
1339,23696,13390.00
1340,23664,13400.00
1341,23656,13410.00
1342,23668,13420.00
1343,23692,13430.00
1344,23700,13440.00
1345,23728,13450.00
1346,23752,13460.00
1347,23776,13470.00
1348,23796,13480.00
1349,23804,13490.00
1350,23812,13500.00
1351,23812,13510.00
1352,23812,13520.00
1353,23816,13530.00
1354,23824,13540.00
1355,23840,13550.00
1356,23860,13560.00
1357,23888,13570.00
1358,23920,13580.00
1359,23952,13590.00
1360,23976,13600.00
1361,24004,13610.00
1362,24024,13620.00
1363,24044,13630.00
1364,24068,13640.00
1365,24084,13650.00
1366,24104,13660.00
1367,24120,13670.00
1368,24136,13680.00
1369,24156,13690.00
1370,24172,13700.00
1371,24192,13710.00
1372,24208,13720.00
1373,24232,13730.00
1374,24252,13740.00
1375,24272,13750.00
1376,24292,13760.00
1377,24312,13770.00
1378,24308,13780.00
1379,24252,13790.00
1380,24160,13800.00
1381,24048,13810.00
1382,23928,13820.00
1383,23848,13830.00
1384,23804,13840.00
1385,23780,13850.00
1386,23784,13860.00
1387,23792,13870.00
1388,23800,13880.00
1389,23812,13890.00
1390,23832,13900.00
1391,23852,13910.00
1392,23872,13920.00
1393,23888,13930.00
1394,23896,13940.00
1395,23892,13950.00
1396,23892,13960.00
1397,23892,13970.00
1398,23892,13980.00
1399,23908,13990.00
1400,23924,14000.00
1401,23944,14010.00
1402,23972,14020.00
1403,23996,14030.00
1404,24020,14040.00
1405,24044,14050.00
1406,24064,14060.00
1407,24084,14070.00
1408,24104,14080.00
1409,24120,14090.00
1410,24136,14100.00
1411,24152,14110.00
1412,24172,14120.00
1413,24188,14130.00
1414,24208,14140.00
1415,24232,14150.00
1416,24256,14160.00
1417,24276,14170.00
1418,24296,14180.00
1419,24316,14190.00
1420,24332,14200.00
1421,24356,14210.00
1422,24372,14220.00
1423,24396,14230.00
1424,24408,14240.00
1425,24432,14250.00
1426,24452,14260.00
1427,24468,14270.00
1428,24468,14280.00
1429,24424,14290.00
1430,24328,14300.00
1431,24204,14310.00
1432,24080,14320.00
1433,23980,14330.00
1434,23912,14340.00
1435,23880,14350.00
1436,23868,14360.00
1437,23864,14370.00
1438,23872,14380.00
1439,23868,14390.00
1440,23876,14400.00
1441,23892,14410.00
1442,23904,14420.00
1443,23916,14430.00
1444,23924,14440.00
1445,23932,14450.00
1446,23928,14460.00
1447,23924,14470.00
1448,23924,14480.00
1449,23932,14490.00
1450,23944,14500.00
1451,23964,14510.00
1452,23988,14520.00
1453,24016,14530.00
1454,24040,14540.00
1455,24068,14550.00
1456,24092,14560.00
1457,24112,14570.00
1458,24132,14580.00
1459,24148,14590.00
1460,24164,14600.00
1461,24180,14610.00
1462,24196,14620.00
1463,24220,14630.00
1464,24236,14640.00
1465,24256,14650.00
1466,24272,14660.00
1467,24292,14670.00
1468,24308,14680.00
1469,24324,14690.00
1470,24336,14700.00
1471,24352,14710.00
1472,24368,14720.00
1473,24384,14730.00
1474,24396,14740.00
1475,24408,14750.00
1476,24424,14760.00
1477,24436,14770.00
1478,24444,14780.00
1479,24448,14790.00
1480,24448,14800.00
1481,24428,14810.00
1482,24360,14820.00
1483,24268,14830.00
1484,24160,14840.00
1485,24056,14850.00
1486,23988,14860.00
1487,23948,14870.00
1488,23932,14880.00
1489,23932,14890.00
1490,23944,14900.00
1491,23948,14910.00
1492,23948,14920.00
1493,23960,14930.00
1494,23968,14940.00
1495,23972,14950.00
1496,23972,14960.00
1497,23956,14970.00
1498,23944,14980.00
1499,23928,14990.00
1500,23920,15000.00
1501,23924,15010.00
1502,23932,15020.00
1503,23956,15030.00
1504,23984,15040.00
1505,24016,15050.00
1506,24052,15060.00
1507,24080,15070.00
1508,24108,15080.00
1509,24132,15090.00
1510,24152,15100.00
1511,24176,15110.00
1512,24188,15120.00
1513,24200,15130.00
1514,24212,15140.00
1515,24228,15150.00
1516,24240,15160.00
1517,24256,15170.00
1518,24272,15180.00
1519,24292,15190.00
1520,24308,15200.00
1521,24328,15210.00
1522,24348,15220.00
1523,24360,15230.00
1524,24380,15240.00
1525,24396,15250.00
1526,24412,15260.00
1527,24432,15270.00
1528,24448,15280.00
1529,24468,15290.00
1530,24488,15300.00
1531,24500,15310.00
1532,24484,15320.00
1533,24428,15330.00
1534,24332,15340.00
1535,24220,15350.00
1536,24120,15360.00
1537,24044,15370.00
1538,24000,15380.00
1539,23984,15390.00
1540,23984,15400.00
1541,23988,15410.00
1542,23996,15420.00
1543,24008,15430.00
1544,24024,15440.00
1545,24040,15450.00
1546,24048,15460.00
1547,24056,15470.00
1548,24056,15480.00
1549,24052,15490.00
1550,24044,15500.00
1551,24044,15510.00
1552,24048,15520.00
1553,24060,15530.00
1554,24072,15540.00
1555,24092,15550.00
1556,24120,15560.00
1557,24136,15570.00
1558,24168,15580.00
1559,24192,15590.00
1560,24216,15600.00
1561,24236,15610.00
1562,24256,15620.00
1563,24276,15630.00
1564,24292,15640.00
1565,24308,15650.00
1566,24324,15660.00
1567,24340,15670.00
1568,24356,15680.00
1569,24376,15690.00
1570,24392,15700.00
1571,24412,15710.00
1572,24428,15720.00
1573,24448,15730.00
1574,24468,15740.00
1575,24488,15750.00
1576,24504,15760.00
1577,24524,15770.00
1578,24548,15780.00
1579,24564,15790.00
1580,24588,15800.00
1581,24596,15810.00
1582,24572,15820.00
1583,24508,15830.00
1584,24396,15840.00
1585,24272,15850.00
1586,24152,15860.00
1587,24064,15870.00
1588,24008,15880.00
1589,23980,15890.00
1590,23976,15900.00
1591,23984,15910.00
1592,23988,15920.00
1593,23996,15930.00
1594,24004,15940.00
1595,24020,15950.00
1596,24028,15960.00
1597,24036,15970.00
1598,24040,15980.00
1599,24040,15990.00
1600,24036,16000.00
1601,24032,16010.00
1602,24040,16020.00
1603,24044,16030.00
1604,24064,16040.00
1605,24080,16050.00
1606,24104,16060.00
1607,24128,16070.00
1608,24156,16080.00
1609,24184,16090.00
1610,24212,16100.00
1611,24236,16110.00
1612,24256,16120.00
1613,24276,16130.00
1614,24296,16140.00
1615,24312,16150.00
1616,24328,16160.00
1617,24344,16170.00
1618,24360,16180.00
1619,24376,16190.00
1620,24396,16200.00
1621,24412,16210.00
1622,24432,16220.00
1623,24456,16230.00
1624,24476,16240.00
1625,24500,16250.00
1626,24508,16260.00
1627,24480,16270.00
1628,24404,16280.00
1629,24296,16290.00
1630,24172,16300.00
1631,24060,16310.00
1632,23980,16320.00
1633,23932,16330.00
1634,23920,16340.00
1635,23924,16350.00
1636,23936,16360.00
1637,23948,16370.00
1638,23968,16380.00
1639,23988,16390.00
1640,24008,16400.00
1641,24020,16410.00
1642,24032,16420.00
1643,24032,16430.00
1644,24032,16440.00
1645,24028,16450.00
1646,24028,16460.00
1647,24032,16470.00
1648,24048,16480.00
1649,24064,16490.00
1650,24088,16500.00
1651,24112,16510.00
1652,24140,16520.00
1653,24172,16530.00
1654,24200,16540.00
1655,24224,16550.00
1656,24248,16560.00
1657,24272,16570.00
1658,24292,16580.00
1659,24312,16590.00
1660,24324,16600.00
1661,24332,16610.00
1662,24344,16620.00
1663,24352,16630.00
1664,24368,16640.00
1665,24384,16650.00
1666,24400,16660.00
1667,24408,16670.00
1668,24392,16680.00
1669,24332,16690.00
1670,24228,16700.00
1671,24104,16710.00
1672,23980,16720.00
1673,23884,16730.00
1674,23832,16740.00
1675,23812,16750.00
1676,23820,16760.00
1677,23836,16770.00
1678,23856,16780.00
1679,23880,16790.00
1680,23900,16800.00
1681,23928,16810.00
1682,23948,16820.00
1683,23956,16830.00
1684,23956,16840.00
1685,23956,16850.00
1686,23948,16860.00
1687,23952,16870.00
1688,23960,16880.00
1689,23976,16890.00
1690,24000,16900.00
1691,24024,16910.00
1692,24056,16920.00
1693,24084,16930.00
1694,24116,16940.00
1695,24140,16950.00
1696,24164,16960.00
1697,24192,16970.00
1698,24216,16980.00
1699,24236,16990.00
1700,24256,17000.00
1701,24276,17010.00
1702,24292,17020.00
1703,24312,17030.00
1704,24332,17040.00
1705,24352,17050.00
1706,24352,17060.00
1707,24308,17070.00
1708,24220,17080.00
1709,24104,17090.00
1710,23976,17100.00
1711,23876,17110.00
1712,23816,17120.00
1713,23796,17130.00
1714,23800,17140.00
1715,23816,17150.00
1716,23832,17160.00
1717,23856,17170.00
1718,23884,17180.00
1719,23920,17190.00
1720,23944,17200.00
1721,23968,17210.00
1722,23980,17220.00
1723,23984,17230.00
1724,23984,17240.00
1725,23988,17250.00
1726,23992,17260.00
1727,24004,17270.00
1728,24020,17280.00
1729,24040,17290.00
1730,24068,17300.00
1731,24096,17310.00
1732,24128,17320.00
1733,24156,17330.00
1734,24180,17340.00
1735,24208,17350.00
1736,24224,17360.00
1737,24240,17370.00
1738,24260,17380.00
1739,24272,17390.00
1740,24288,17400.00
1741,24300,17410.00
1742,24320,17420.00
1743,24336,17430.00
1744,24360,17440.00
1745,24372,17450.00
1746,24392,17460.00
1747,24392,17470.00
1748,24340,17480.00
1749,24232,17490.00
1750,24096,17500.00
1751,23956,17510.00
1752,23848,17520.00
1753,23788,17530.00
1754,23768,17540.00
1755,23776,17550.00
1756,23796,17560.00
1757,23808,17570.00
1758,23824,17580.00
1759,23848,17590.00
1760,23876,17600.00
1761,23900,17610.00
1762,23916,17620.00
1763,23936,17630.00
1764,23940,17640.00
1765,23940,17650.00
1766,23940,17660.00
1767,23944,17670.00
1768,23952,17680.00
1769,23972,17690.00
1770,23996,17700.00
1771,24024,17710.00
1772,24052,17720.00
1773,24084,17730.00
1774,24108,17740.00
1775,24132,17750.00
1776,24156,17760.00
1777,24180,17770.00
1778,24200,17780.00
1779,24216,17790.00
1780,24228,17800.00
1781,24244,17810.00
1782,24256,17820.00
1783,24272,17830.00
1784,24292,17840.00
1785,24312,17850.00
1786,24332,17860.00
1787,24352,17870.00
1788,24344,17880.00
1789,24280,17890.00
1790,24172,17900.00
1791,24032,17910.00
1792,23896,17920.00
1793,23796,17930.00
1794,23748,17940.00
1795,23748,17950.00
1796,23760,17960.00
1797,23784,17970.00
1798,23804,17980.00
1799,23832,17990.00
1800,23856,18000.00
1801,23888,18010.00
1802,23912,18020.00
1803,23932,18030.00
1804,23944,18040.00
1805,23948,18050.00
1806,23948,18060.00
1807,23952,18070.00
1808,23956,18080.00
1809,23972,18090.00
1810,23984,18100.00
1811,24012,18110.00
1812,24044,18120.00
1813,24072,18130.00
1814,24096,18140.00
1815,24124,18150.00
1816,24152,18160.00
1817,24172,18170.00
1818,24196,18180.00
1819,24216,18190.00
1820,24232,18200.00
1821,24252,18210.00
1822,24264,18220.00
1823,24272,18230.00
1824,24292,18240.00
1825,24316,18250.00
1826,24332,18260.00
1827,24356,18270.00
1828,24368,18280.00
1829,24348,18290.00
1830,24272,18300.00
1831,24144,18310.00
1832,24000,18320.00
1833,23872,18330.00
1834,23788,18340.00
1835,23756,18350.00
1836,23760,18360.00
1837,23784,18370.00
1838,23808,18380.00
1839,23832,18390.00
1840,23856,18400.00
1841,23892,18410.00
1842,23920,18420.00
1843,23944,18430.00
1844,23960,18440.00
1845,23960,18450.00
1846,23960,18460.00
1847,23960,18470.00
1848,23964,18480.00
1849,23972,18490.00
1850,23992,18500.00
1851,24016,18510.00
1852,24040,18520.00
1853,24068,18530.00
1854,24100,18540.00
1855,24124,18550.00
1856,24152,18560.00
1857,24176,18570.00
1858,24196,18580.00
1859,24216,18590.00
1860,24232,18600.00
1861,24256,18610.00
1862,24272,18620.00
1863,24288,18630.00
1864,24304,18640.00
1865,24316,18650.00
1866,24336,18660.00
1867,24348,18670.00
1868,24368,18680.00
1869,24388,18690.00
1870,24412,18700.00
1871,24432,18710.00
1872,24448,18720.00
1873,24472,18730.00
1874,24492,18740.00
1875,24512,18750.00
1876,24532,18760.00
1877,24552,18770.00
1878,24568,18780.00
1879,24584,18790.00
1880,24604,18800.00
1881,24620,18810.00
1882,24640,18820.00
1883,24656,18830.00
1884,24628,18840.00
1885,24528,18850.00
1886,24372,18860.00
1887,24196,18870.00
1888,24032,18880.00
1889,23912,18890.00
1890,23864,18900.00
1891,23856,18910.00
1892,23872,18920.00
1893,23896,18930.00
1894,23916,18940.00
1895,23936,18950.00
1896,23960,18960.00
1897,23980,18970.00
1898,23996,18980.00
1899,24004,18990.00
1900,24004,19000.00
1901,23996,19010.00
1902,23992,19020.00
1903,23984,19030.00
1904,23988,19040.00
1905,24004,19050.00
1906,24028,19060.00
1907,24056,19070.00
1908,24080,19080.00
1909,24112,19090.00
1910,24140,19100.00
1911,24164,19110.00
1912,24192,19120.00
1913,24212,19130.00
1914,24236,19140.00
1915,24256,19150.00
1916,24276,19160.00
1917,24296,19170.00
1918,24312,19180.00
1919,24324,19190.00
1920,24344,19200.00
1921,24360,19210.00
1922,24380,19220.00
1923,24400,19230.00
1924,24420,19240.00
1925,24440,19250.00
1926,24460,19260.00
1927,24480,19270.00
1928,24504,19280.00
1929,24520,19290.00
1930,24544,19300.00
1931,24564,19310.00
1932,24580,19320.00
1933,24600,19330.00
1934,24616,19340.00
1935,24640,19350.00
1936,24664,19360.00
1937,24652,19370.00
1938,24588,19380.00
1939,24460,19390.00
1940,24296,19400.00
1941,24128,19410.00
1942,23992,19420.00
1943,23912,19430.00
1944,23884,19440.00
1945,23896,19450.00
1946,23920,19460.00
1947,23940,19470.00
1948,23964,19480.00
1949,23992,19490.00
1950,24012,19500.00
1951,24032,19510.00
1952,24048,19520.00
1953,24048,19530.00
1954,24044,19540.00
1955,24036,19550.00
1956,24032,19560.00
1957,24032,19570.00
1958,24040,19580.00
1959,24060,19590.00
1960,24084,19600.00
1961,24112,19610.00
1962,24144,19620.00
1963,24176,19630.00
1964,24200,19640.00
1965,24232,19650.00
1966,24256,19660.00
1967,24280,19670.00
1968,24300,19680.00
1969,24320,19690.00
1970,24340,19700.00
1971,24356,19710.00
1972,24376,19720.00
1973,24396,19730.00
1974,24408,19740.00
1975,24420,19750.00
1976,24436,19760.00
1977,24456,19770.00
1978,24476,19780.00
1979,24496,19790.00
1980,24516,19800.00
1981,24540,19810.00
1982,24560,19820.00
1983,24576,19830.00
1984,24596,19840.00
1985,24616,19850.00
1986,24632,19860.00
1987,24652,19870.00
1988,24664,19880.00
1989,24660,19890.00
1990,24588,19900.00
1991,24460,19910.00
1992,24300,19920.00
1993,24136,19930.00
1994,24004,19940.00
1995,23924,19950.00
1996,23900,19960.00
1997,23908,19970.00
1998,23936,19980.00
1999,23964,19990.00
2000,23984,20000.00
2001,24016,20010.00
2002,24040,20020.00
2003,24060,20030.00
2004,24068,20040.00
2005,24072,20050.00
2006,24060,20060.00
2007,24048,20070.00
2008,24040,20080.00
2009,24040,20090.00
2010,24052,20100.00
2011,24068,20110.00
2012,24092,20120.00
2013,24116,20130.00
2014,24148,20140.00
2015,24176,20150.00
2016,24204,20160.00
2017,24236,20170.00
2018,24256,20180.00
2019,24280,20190.00
2020,24296,20200.00
2021,24312,20210.00
2022,24328,20220.00
2023,24340,20230.00
2024,24356,20240.00
2025,24372,20250.00
2026,24388,20260.00
2027,24404,20270.00
2028,24420,20280.00
2029,24436,20290.00
2030,24452,20300.00
2031,24468,20310.00
2032,24488,20320.00
2033,24500,20330.00
2034,24516,20340.00
2035,24536,20350.00
2036,24556,20360.00
2037,24576,20370.00
2038,24588,20380.00
2039,24552,20390.00
2040,24460,20400.00
2041,24320,20410.00
2042,24168,20420.00
2043,24028,20430.00
2044,23932,20440.00
2045,23892,20450.00
2046,23892,20460.00
2047,23916,20470.00
2048,23952,20480.00
2049,23988,20490.00
2050,24032,20500.00
2051,24064,20510.00
2052,24088,20520.00
2053,24100,20530.00
2054,24100,20540.00
2055,24084,20550.00
2056,24072,20560.00
2057,24056,20570.00
2058,24056,20580.00
2059,24068,20590.00
2060,24084,20600.00
2061,24108,20610.00
2062,24140,20620.00
2063,24168,20630.00
2064,24200,20640.00
2065,24228,20650.00
2066,24252,20660.00
2067,24276,20670.00
2068,24296,20680.00
2069,24316,20690.00
2070,24336,20700.00
2071,24356,20710.00
2072,24368,20720.00
2073,24380,20730.00
2074,24396,20740.00
2075,24408,20750.00
2076,24420,20760.00
2077,24436,20770.00
2078,24452,20780.00
2079,24464,20790.00
2080,24480,20800.00
2081,24496,20810.00
2082,24516,20820.00
2083,24540,20830.00
2084,24560,20840.00
2085,24580,20850.00
2086,24588,20860.00
2087,24552,20870.00
2088,24448,20880.00
2089,24300,20890.00
2090,24132,20900.00
2091,23980,20910.00
2092,23872,20920.00
2093,23824,20930.00
2094,23816,20940.00
2095,23832,20950.00
2096,23856,20960.00
2097,23872,20970.00
2098,23896,20980.00
2099,23924,20990.00
2100,23948,21000.00
2101,23968,21010.00
2102,23976,21020.00
2103,23980,21030.00
2104,23980,21040.00
2105,23972,21050.00
2106,23972,21060.00
2107,23976,21070.00
2108,23992,21080.00
2109,24008,21090.00
2110,24032,21100.00
2111,24056,21110.00
2112,24080,21120.00
2113,24104,21130.00
2114,24128,21140.00
2115,24152,21150.00
2116,24172,21160.00
2117,24196,21170.00
2118,24212,21180.00
2119,24228,21190.00
2120,24244,21200.00
2121,24264,21210.00
2122,24284,21220.00
2123,24300,21230.00
2124,24320,21240.00
2125,24340,21250.00
2126,24356,21260.00
2127,24368,21270.00
2128,24388,21280.00
2129,24404,21290.00
2130,24424,21300.00
2131,24448,21310.00
2132,24464,21320.00
2133,24440,21330.00
2134,24348,21340.00
2135,24216,21350.00
2136,24064,21360.00
2137,23920,21370.00
2138,23820,21380.00
2139,23768,21390.00
2140,23756,21400.00
2141,23772,21410.00
2142,23792,21420.00
2143,23820,21430.00
2144,23848,21440.00
2145,23884,21450.00
2146,23908,21460.00
2147,23928,21470.00
2148,23936,21480.00
2149,23936,21490.00
2150,23932,21500.00
2151,23924,21510.00
2152,23920,21520.00
2153,23928,21530.00
2154,23936,21540.00
2155,23952,21550.00
2156,23980,21560.00
2157,24004,21570.00
2158,24032,21580.00
2159,24052,21590.00
2160,24080,21600.00
2161,24100,21610.00
2162,24120,21620.00
2163,24144,21630.00
2164,24160,21640.00
2165,24172,21650.00
2166,24188,21660.00
2167,24200,21670.00
2168,24208,21680.00
2169,24224,21690.00
2170,24236,21700.00
2171,24252,21710.00
2172,24272,21720.00
2173,24288,21730.00
2174,24308,21740.00
2175,24304,21750.00
2176,24240,21760.00
2177,24128,21770.00
2178,23984,21780.00
2179,23848,21790.00
2180,23744,21800.00
2181,23688,21810.00
2182,23672,21820.00
2183,23688,21830.00
2184,23716,21840.00
2185,23744,21850.00
2186,23776,21860.00
2187,23820,21870.00
2188,23852,21880.00
2189,23872,21890.00
2190,23876,21900.00
2191,23872,21910.00
2192,23864,21920.00
2193,23852,21930.00
2194,23852,21940.00
2195,23852,21950.00
2196,23868,21960.00
2197,23892,21970.00
2198,23916,21980.00
2199,23948,21990.00
2200,23972,22000.00
2201,24000,22010.00
2202,24020,22020.00
2203,24044,22030.00
2204,24064,22040.00
2205,24076,22050.00
2206,24092,22060.00
2207,24108,22070.00
2208,24120,22080.00
2209,24132,22090.00
2210,24144,22100.00
2211,24160,22110.00
2212,24176,22120.00
2213,24196,22130.00
2214,24212,22140.00
2215,24200,22150.00
2216,24136,22160.00
2217,24024,22170.00
2218,23888,22180.00
2219,23752,22190.00
2220,23664,22200.00
2221,23616,22210.00
2222,23604,22220.00
2223,23612,22230.00
2224,23632,22240.00
2225,23648,22250.00
2226,23676,22260.00
2227,23708,22270.00
2228,23736,22280.00
2229,23764,22290.00
2230,23780,22300.00
2231,23784,22310.00
2232,23784,22320.00
2233,23780,22330.00
2234,23780,22340.00
2235,23788,22350.00
2236,23804,22360.00
2237,23828,22370.00
2238,23852,22380.00
2239,23884,22390.00
2240,23912,22400.00
2241,23936,22410.00
2242,23960,22420.00
2243,23976,22430.00
2244,23996,22440.00
2245,24016,22450.00
2246,24028,22460.00
2247,24040,22470.00
2248,24056,22480.00
2249,24072,22490.00
2250,24084,22500.00
2251,24096,22510.00
2252,24112,22520.00
2253,24124,22530.00
2254,24144,22540.00
2255,24168,22550.00
2256,24180,22560.00
2257,24168,22570.00
2258,24108,22580.00
2259,23996,22590.00
2260,23864,22600.00
2261,23736,22610.00
2262,23644,22620.00
2263,23592,22630.00
2264,23572,22640.00
2265,23576,22650.00
2266,23588,22660.00
2267,23596,22670.00
2268,23612,22680.00
2269,23636,22690.00
2270,23664,22700.00
2271,23692,22710.00
2272,23716,22720.00
2273,23724,22730.00
2274,23732,22740.00
2275,23732,22750.00
2276,23732,22760.00
2277,23740,22770.00
2278,23756,22780.00
2279,23776,22790.00
2280,23800,22800.00
2281,23828,22810.00
2282,23856,22820.00
2283,23880,22830.00
2284,23904,22840.00
2285,23924,22850.00
2286,23944,22860.00
2287,23960,22870.00
2288,23972,22880.00
2289,23984,22890.00
2290,24004,22900.00
2291,24012,22910.00
2292,24024,22920.00
2293,24044,22930.00
2294,24060,22940.00
2295,24076,22950.00
2296,24092,22960.00
2297,24108,22970.00
2298,24128,22980.00
2299,24144,22990.00
2300,24160,23000.00
2301,24176,23010.00
2302,24196,23020.00
2303,24212,23030.00
2304,24232,23040.00
2305,24248,23050.00
2306,24264,23060.00
2307,24256,23070.00
2308,24188,23080.00
2309,24076,23090.00
2310,23932,23100.00
2311,23796,23110.00
2312,23688,23120.00
2313,23632,23130.00
2314,23612,23140.00
2315,23612,23150.00
2316,23616,23160.00
2317,23620,23170.00
2318,23632,23180.00
2319,23644,23190.00
2320,23668,23200.00
2321,23692,23210.00
2322,23712,23220.00
2323,23720,23230.00
2324,23728,23240.00
2325,23728,23250.00
2326,23728,23260.00
2327,23736,23270.00
2328,23744,23280.00
2329,23760,23290.00
2330,23784,23300.00
2331,23808,23310.00
2332,23832,23320.00
2333,23856,23330.00
2334,23876,23340.00
2335,23896,23350.00
2336,23908,23360.00
2337,23932,23370.00
2338,23944,23380.00
2339,23960,23390.00
2340,23980,23400.00
2341,23992,23410.00
2342,24004,23420.00
2343,24016,23430.00
2344,24028,23440.00
2345,24044,23450.00
2346,24060,23460.00
2347,24080,23470.00
2348,24100,23480.00
2349,24116,23490.00
2350,24136,23500.00
2351,24152,23510.00
2352,24168,23520.00
2353,24188,23530.00
2354,24200,23540.00
2355,24220,23550.00
2356,24236,23560.00
2357,24252,23570.00
2358,24272,23580.00
2359,24288,23590.00
2360,24280,23600.00
2361,24216,23610.00
2362,24100,23620.00
2363,23960,23630.00
2364,23820,23640.00
2365,23708,23650.00
2366,23644,23660.00
2367,23624,23670.00
2368,23624,23680.00
2369,23636,23690.00
2370,23644,23700.00
2371,23652,23710.00
2372,23672,23720.00
2373,23696,23730.00
2374,23720,23740.00
2375,23732,23750.00
2376,23740,23760.00
2377,23740,23770.00
2378,23736,23780.00
2379,23736,23790.00
2380,23740,23800.00
2381,23752,23810.00
2382,23768,23820.00
2383,23792,23830.00
2384,23816,23840.00
2385,23840,23850.00
2386,23868,23860.00
2387,23888,23870.00
2388,23912,23880.00
2389,23928,23890.00
2390,23944,23900.00
2391,23964,23910.00
2392,23984,23920.00
2393,24000,23930.00
2394,24012,23940.00
2395,24028,23950.00
2396,24044,23960.00
2397,24060,23970.00
2398,24076,23980.00
2399,24096,23990.00
2400,24112,24000.00
2401,24132,24010.00
2402,24152,24020.00
2403,24172,24030.00
2404,24192,24040.00
2405,24212,24050.00
2406,24228,24060.00
2407,24252,24070.00
2408,24264,24080.00
2409,24276,24090.00
2410,24296,24100.00
2411,24312,24110.00
2412,24328,24120.00
2413,24348,24130.00
2414,24360,24140.00
2415,24348,24150.00
2416,24276,24160.00
2417,24156,24170.00
2418,24008,24180.00
2419,23864,24190.00
2420,23756,24200.00
2421,23688,24210.00
2422,23668,24220.00
2423,23676,24230.00
2424,23688,24240.00
2425,23700,24250.00
2426,23724,24260.00
2427,23744,24270.00
2428,23768,24280.00
2429,23784,24290.00
2430,23796,24300.00
2431,23796,24310.00
2432,23796,24320.00
2433,23784,24330.00
2434,23788,24340.00
2435,23796,24350.00
2436,23804,24360.00
2437,23824,24370.00
2438,23848,24380.00
2439,23872,24390.00
2440,23900,24400.00
2441,23928,24410.00
2442,23952,24420.00
2443,23976,24430.00
2444,23996,24440.00
2445,24016,24450.00
2446,24032,24460.00
2447,24048,24470.00
2448,24068,24480.00
2449,24080,24490.00
2450,24096,24500.00
2451,24108,24510.00
2452,24124,24520.00
2453,24140,24530.00
2454,24156,24540.00
2455,24176,24550.00
2456,24192,24560.00
2457,24212,24570.00
2458,24232,24580.00
2459,24248,24590.00
2460,24268,24600.00
2461,24284,24610.00
2462,24300,24620.00
2463,24320,24630.00
2464,24340,24640.00
2465,24356,24650.00
2466,24348,24660.00
2467,24284,24670.00
2468,24172,24680.00
2469,24032,24690.00
2470,23888,24700.00
2471,23772,24710.00
2472,23708,24720.00
2473,23688,24730.00
2474,23696,24740.00
2475,23716,24750.00
2476,23740,24760.00
2477,23772,24770.00
2478,23800,24780.00
2479,23824,24790.00
2480,23848,24800.00
2481,23860,24810.00
2482,23860,24820.00
2483,23860,24830.00
2484,23852,24840.00
2485,23848,24850.00
2486,23852,24860.00
2487,23864,24870.00
2488,23884,24880.00
2489,23912,24890.00
2490,23936,24900.00
2491,23968,24910.00
2492,23996,24920.00
2493,24024,24930.00
2494,24048,24940.00
2495,24072,24950.00
2496,24088,24960.00
2497,24104,24970.00
2498,24120,24980.00
2499,24136,24990.00
2500,24152,25000.00
2501,24164,25010.00
2502,24180,25020.00
2503,24196,25030.00
2504,24212,25040.00
2505,24228,25050.00
2506,24244,25060.00
2507,24260,25070.00
2508,24276,25080.00
2509,24292,25090.00
2510,24308,25100.00
2511,24324,25110.00
2512,24340,25120.00
2513,24360,25130.00
2514,24372,25140.00
2515,24392,25150.00
2516,24400,25160.00
2517,24360,25170.00
2518,24260,25180.00
2519,24116,25190.00
2520,23956,25200.00
2521,23812,25210.00
2522,23712,25220.00
2523,23668,25230.00
2524,23668,25240.00
2525,23684,25250.00
2526,23708,25260.00
2527,23728,25270.00
2528,23748,25280.00
2529,23776,25290.00
2530,23800,25300.00
2531,23816,25310.00
2532,23824,25320.00
2533,23828,25330.00
2534,23828,25340.00
2535,23824,25350.00
2536,23824,25360.00
2537,23832,25370.00
2538,23844,25380.00
2539,23868,25390.00
2540,23892,25400.00
2541,23924,25410.00
2542,23948,25420.00
2543,23972,25430.00
2544,24000,25440.00
2545,24020,25450.00
2546,24044,25460.00
2547,24060,25470.00
2548,24076,25480.00
2549,24096,25490.00
2550,24108,25500.00
2551,24124,25510.00
2552,24136,25520.00
2553,24144,25530.00
2554,24160,25540.00
2555,24176,25550.00
2556,24188,25560.00
2557,24204,25570.00
2558,24224,25580.00
2559,24240,25590.00
2560,24260,25600.00
2561,24276,25610.00
2562,24296,25620.00
2563,24312,25630.00
2564,24328,25640.00
2565,24348,25650.00
2566,24364,25660.00
2567,24380,25670.00
2568,24372,25680.00
2569,24304,25690.00
2570,24184,25700.00
2571,24028,25710.00
2572,23872,25720.00
2573,23748,25730.00
2574,23688,25740.00
2575,23668,25750.00
2576,23680,25760.00
2577,23700,25770.00
2578,23724,25780.00
2579,23748,25790.00
2580,23776,25800.00
2581,23800,25810.00
2582,23820,25820.00
2583,23836,25830.00
2584,23844,25840.00
2585,23844,25850.00
2586,23840,25860.00
2587,23836,25870.00
2588,23836,25880.00
2589,23848,25890.00
2590,23868,25900.00
2591,23892,25910.00
2592,23916,25920.00
2593,23944,25930.00
2594,23972,25940.00
2595,24000,25950.00
2596,24020,25960.00
2597,24040,25970.00
2598,24056,25980.00
2599,24072,25990.00
2600,24084,26000.00
2601,24096,26010.00
2602,24108,26020.00
2603,24124,26030.00
2604,24140,26040.00
2605,24156,26050.00
2606,24172,26060.00
2607,24184,26070.00
2608,24196,26080.00
2609,24216,26090.00
2610,24236,26100.00
2611,24256,26110.00
2612,24276,26120.00
2613,24292,26130.00
2614,24312,26140.00
2615,24328,26150.00
2616,24344,26160.00
2617,24364,26170.00
2618,24384,26180.00
2619,24400,26190.00
2620,24412,26200.00
2621,24388,26210.00
2622,24304,26220.00
2623,24172,26230.00
2624,24008,26240.00
2625,23856,26250.00
2626,23752,26260.00
2627,23704,26270.00
2628,23696,26280.00
2629,23708,26290.00
2630,23732,26300.00
2631,23752,26310.00
2632,23776,26320.00
2633,23800,26330.00
2634,23820,26340.00
2635,23840,26350.00
2636,23852,26360.00
2637,23852,26370.00
2638,23844,26380.00
2639,23840,26390.00
2640,24236,26400.00
2641,24244,26410.00
2642,24268,26420.00
2643,24288,26430.00
2644,24308,26440.00
2645,24324,26450.00
2646,24340,26460.00
2647,24356,26470.00
2648,24372,26480.00
2649,24392,26490.00
2650,24412,26500.00
2651,24432,26510.00
2652,24436,26520.00
2653,24388,26530.00
2654,24284,26540.00
2655,24124,26550.00
2656,23952,26560.00
2657,23808,26570.00
2658,23720,26580.00
2659,23688,26590.00
2660,23688,26600.00
2661,23708,26610.00
2662,23732,26620.00
2663,23752,26630.00
2664,23772,26640.00
2665,23800,26650.00
2666,23820,26660.00
2667,23836,26670.00
2668,23836,26680.00
2669,23840,26690.00
2670,23832,26700.00
2671,23828,26710.00
2672,23820,26720.00
2673,23828,26730.00
2674,23840,26740.00
2675,23860,26750.00
2676,23888,26760.00
2677,23912,26770.00
2678,23940,26780.00
2679,23968,26790.00
2680,23992,26800.00
2681,24016,26810.00
2682,24036,26820.00
2683,24056,26830.00
2684,24064,26840.00
2685,24076,26850.00
2686,24092,26860.00
2687,24104,26870.00
2688,24120,26880.00
2689,24132,26890.00
2690,24152,26900.00
2691,24172,26910.00
2692,24188,26920.00
2693,24208,26930.00
2694,24228,26940.00
2695,24248,26950.00
2696,24268,26960.00
2697,24288,26970.00
2698,24308,26980.00
2699,24328,26990.00
2700,24344,27000.00
2701,24364,27010.00
2702,24384,27020.00
2703,24408,27030.00
2704,24424,27040.00
2705,24416,27050.00
2706,24348,27060.00
2707,24220,27070.00
2708,24064,27080.00
2709,23904,27090.00
2710,23788,27100.00
2711,23724,27110.00
2712,23708,27120.00
2713,23720,27130.00
2714,23752,27140.00
2715,23776,27150.00
2716,23808,27160.00
2717,23836,27170.00
2718,23864,27180.00
2719,23884,27190.00
2720,23884,27200.00
2721,23880,27210.00
2722,23872,27220.00
2723,23864,27230.00
2724,23856,27240.00
2725,23860,27250.00
2726,23872,27260.00
2727,23888,27270.00
2728,23916,27280.00
2729,23944,27290.00
2730,23972,27300.00
2731,24004,27310.00
2732,24032,27320.00
2733,24052,27330.00
2734,24076,27340.00
2735,24096,27350.00
2736,24116,27360.00
2737,24136,27370.00
2738,24148,27380.00
2739,24164,27390.00
2740,24184,27400.00
2741,24196,27410.00
2742,24212,27420.00
2743,24228,27430.00
2744,24244,27440.00
2745,24268,27450.00
2746,24288,27460.00
2747,24308,27470.00
2748,24324,27480.00
2749,24348,27490.00
2750,24368,27500.00
2751,24384,27510.00
2752,24408,27520.00
2753,24424,27530.00
2754,24444,27540.00
2755,24464,27550.00
2756,24472,27560.00
2757,24428,27570.00
2758,24316,27580.00
2759,24168,27590.00
2760,23996,27600.00
2761,23840,27610.00
2762,23740,27620.00
2763,23696,27630.00
2764,23692,27640.00
2765,23708,27650.00
2766,23728,27660.00
2767,23752,27670.00
2768,23768,27680.00
2769,23792,27690.00
2770,23816,27700.00
2771,23828,27710.00
2772,23840,27720.00
2773,23836,27730.00
2774,23832,27740.00
2775,23824,27750.00
2776,23824,27760.00
2777,23828,27770.00
2778,23840,27780.00
2779,23864,27790.00
2780,23888,27800.00
2781,23916,27810.00
2782,23948,27820.00
2783,23980,27830.00
2784,24004,27840.00
2785,24032,27850.00
2786,24056,27860.00
2787,24076,27870.00
2788,24096,27880.00
2789,24112,27890.00
2790,24128,27900.00
2791,24144,27910.00
2792,24160,27920.00
2793,24176,27930.00
2794,24196,27940.00
2795,24212,27950.00
2796,24232,27960.00
2797,24252,27970.00
2798,24272,27980.00
2799,24292,27990.00
2800,24316,28000.00
2801,24336,28010.00
2802,24352,28020.00
2803,24376,28030.00
2804,24392,28040.00
2805,24408,28050.00
2806,24432,28060.00
2807,24452,28070.00
2808,24456,28080.00
2809,24408,28090.00
2810,24152,28100.00
2811,23992,28110.00
2812,23852,28120.00
2813,23756,28130.00
2814,23712,28140.00
2815,23712,28150.00
2816,23736,28160.00
2817,23768,28170.00
2818,23800,28180.00
2819,23828,28190.00
2820,23864,28200.00
2821,23888,28210.00
2822,23896,28220.00
2823,23900,28230.00
2824,23892,28240.00
2825,23884,28250.00
2826,23876,28260.00
2827,23876,28270.00
2828,23880,28280.00
2829,23896,28290.00
2830,23920,28300.00
2831,23948,28310.00
2832,23980,28320.00
2833,24004,28330.00
2834,24032,28340.00
2835,24056,28350.00
2836,24076,28360.00
2837,24096,28370.00
2838,24116,28380.00
2839,24132,28390.00
2840,24152,28400.00
2841,24164,28410.00
2842,24180,28420.00
2843,24200,28430.00
2844,24216,28440.00
2845,24228,28450.00
2846,24244,28460.00
2847,24260,28470.00
2848,24276,28480.00
2849,24296,28490.00
2850,24320,28500.00
2851,24336,28510.00
2852,24360,28520.00
2853,24384,28530.00
2854,24400,28540.00
2855,24424,28550.00
2856,24440,28560.00
2857,24428,28570.00
2858,24344,28580.00
2859,24212,28590.00
2860,24044,28600.00
2861,23888,28610.00
2862,23768,28620.00
2863,23700,28630.00
2864,23684,28640.00
2865,23696,28650.00
2866,23716,28660.00
2867,23740,28670.00
2868,23760,28680.00
2869,23784,28690.00
2870,23812,28700.00
2871,23832,28710.00
2872,23836,28720.00
2873,23840,28730.00
2874,23836,28740.00
2875,23832,28750.00
2876,23828,28760.00
2877,23828,28770.00
2878,23840,28780.00
2879,23852,28790.00
2880,23872,28800.00
2881,23900,28810.00
2882,23928,28820.00
2883,23956,28830.00
2884,23984,28840.00
2885,24012,28850.00
2886,24036,28860.00
2887,24060,28870.00
2888,24076,28880.00
2889,24088,28890.00
2890,24108,28900.00
2891,24120,28910.00
2892,24136,28920.00
2893,24156,28930.00
2894,24168,28940.00
2895,24192,28950.00
2896,24212,28960.00
2897,24228,28970.00
2898,24248,28980.00
2899,24268,28990.00
2900,24292,29000.00
2901,24312,29010.00
2902,24332,29020.00
2903,24348,29030.00
2904,24372,29040.00
2905,24392,29050.00
2906,24416,29060.00
2907,24436,29070.00
2908,24448,29080.00
2909,24416,29090.00
2910,24312,29100.00
2911,24160,29110.00
2912,23988,29120.00
2913,23836,29130.00
2914,23728,29140.00
2915,23680,29150.00
2916,23672,29160.00
2917,23684,29170.00
2918,23708,29180.00
2919,23728,29190.00
2920,23744,29200.00
2921,23764,29210.00
2922,23784,29220.00
2923,23800,29230.00
2924,23804,29240.00
2925,23800,29250.00
2926,23796,29260.00
2927,23788,29270.00
2928,23788,29280.00
2929,23792,29290.00
2930,23808,29300.00
2931,23824,29310.00
2932,23852,29320.00
2933,23876,29330.00
2934,23904,29340.00
2935,23932,29350.00
2936,23956,29360.00
2937,23980,29370.00
2938,24004,29380.00
2939,24028,29390.00
2940,24048,29400.00
2941,24064,29410.00
2942,24076,29420.00
2943,24092,29430.00
2944,24112,29440.00
2945,24124,29450.00
2946,24140,29460.00
2947,24160,29470.00
2948,24176,29480.00
2949,24200,29490.00
2950,24216,29500.00
2951,24236,29510.00
2952,24256,29520.00
2953,24280,29530.00
2954,24300,29540.00
2955,24316,29550.00
2956,24336,29560.00
2957,24356,29570.00
2958,24380,29580.00
2959,24388,29590.00
2960,23860,29600.00
2961,23884,29610.00
2962,23920,29620.00
2963,23944,29630.00
2964,23968,29640.00
2965,23992,29650.00
2966,24008,29660.00
2967,24024,29670.00
2968,24044,29680.00
2969,24060,29690.00
2970,24072,29700.00
2971,24088,29710.00
2972,24108,29720.00
2973,24120,29730.00
2974,24140,29740.00
2975,24156,29750.00
2976,24172,29760.00
2977,24188,29770.00
2978,24208,29780.00
2979,24228,29790.00
2980,24244,29800.00
2981,24268,29810.00
2982,24288,29820.00
2983,24312,29830.00
2984,24328,29840.00
2985,24340,29850.00
2986,24304,29860.00
2987,24204,29870.00
2988,24064,29880.00
2989,23908,29890.00
2990,23772,29900.00
2991,23680,29910.00
2992,23644,29920.00
2993,23644,29930.00
2994,23664,29940.00
2995,23692,29950.00
2996,23720,29960.00
2997,23748,29970.00
2998,23780,29980.00
2999,23800,29990.00
3000,23812,30000.00
3001,23812,30010.00
3002,23804,30020.00
3003,23796,30030.00
3004,23788,30040.00
3005,23788,30050.00
3006,23796,30060.00
3007,23820,30070.00
3008,23840,30080.00
3009,23872,30090.00
3010,23900,30100.00
3011,23936,30110.00
3012,23964,30120.00
3013,23988,30130.00
3014,24012,30140.00
3015,24032,30150.00
3016,24052,30160.00
3017,24068,30170.00
3018,24084,30180.00
3019,24100,30190.00
3020,24112,30200.00
3021,24132,30210.00
3022,24148,30220.00
3023,24164,30230.00
3024,24184,30240.00
3025,24200,30250.00
3026,24224,30260.00
3027,24236,30270.00
3028,24256,30280.00
3029,24272,30290.00
3030,24292,30300.00
3031,24312,30310.00
3032,24332,30320.00
3033,24344,30330.00
3034,24324,30340.00
3035,24236,30350.00
3036,24096,30360.00
3037,23936,30370.00
3038,23776,30380.00
3039,23664,30390.00
3040,23608,30400.00
3041,23600,30410.00
3042,23608,30420.00
3043,23632,30430.00
3044,23652,30440.00
3045,23672,30450.00
3046,23696,30460.00
3047,23724,30470.00
3048,23740,30480.00
3049,23752,30490.00
3050,23748,30500.00
3051,23748,30510.00
3052,23744,30520.00
3053,23744,30530.00
3054,23752,30540.00
3055,23768,30550.00
3056,23792,30560.00
3057,23816,30570.00
3058,23848,30580.00
3059,23880,30590.00
3060,23908,30600.00
3061,23932,30610.00
3062,23956,30620.00
3063,23984,30630.00
3064,24000,30640.00
3065,24016,30650.00
3066,24040,30660.00
3067,24060,30670.00
3068,24072,30680.00
3069,24088,30690.00
3070,24104,30700.00
3071,24120,30710.00
3072,24140,30720.00
3073,24156,30730.00
3074,24176,30740.00
3075,24192,30750.00
3076,24212,30760.00
3077,24228,30770.00
3078,24244,30780.00
3079,24264,30790.00
3080,24284,30800.00
3081,24304,30810.00
3082,24328,30820.00
3083,24348,30830.00
3084,24348,30840.00
3085,24296,30850.00
3086,24172,30860.00
3087,24008,30870.00
3088,23836,30880.00
3089,23700,30890.00
3090,23612,30900.00
3091,23580,30910.00
3092,23584,30920.00
3093,23600,30930.00
3094,23624,30940.00
3095,23644,30950.00
3096,23660,30960.00
3097,23684,30970.00
3098,23708,30980.00
3099,23720,30990.00
3100,23728,31000.00
3101,23732,31010.00
3102,23732,31020.00
3103,23732,31030.00
3104,23732,31040.00
3105,23740,31050.00
3106,23756,31060.00
3107,23776,31070.00
3108,23804,31080.00
3109,23832,31090.00
3110,23864,31100.00
3111,23892,31110.00
3112,23920,31120.00
3113,23948,31130.00
3114,23968,31140.00
3115,23988,31150.00
3116,24004,31160.00
3117,24020,31170.00
3118,24036,31180.00
3119,24048,31190.00
3120,24064,31200.00
3121,24080,31210.00
3122,24096,31220.00
3123,24112,31230.00
3124,24128,31240.00
3125,24148,31250.00
3126,24168,31260.00
3127,24192,31270.00
3128,24208,31280.00
3129,24232,31290.00
3130,24244,31300.00
3131,24264,31310.00
3132,24284,31320.00
3133,24304,31330.00
3134,24324,31340.00
3135,24340,31350.00
3136,24332,31360.00
3137,24256,31370.00
3138,24124,31380.00
3139,23956,31390.00
3140,23796,31400.00
3141,23672,31410.00
3142,23604,31420.00
3143,23584,31430.00
3144,23592,31440.00
3145,23620,31450.00
3146,23644,31460.00
3147,23672,31470.00
3148,23700,31480.00
3149,23728,31490.00
3150,23744,31500.00
3151,23752,31510.00
3152,23748,31520.00
3153,23740,31530.00
3154,23732,31540.00
3155,23728,31550.00
3156,23732,31560.00
3157,23744,31570.00
3158,23764,31580.00
3159,23788,31590.00
3160,23820,31600.00
3161,23844,31610.00
3162,23876,31620.00
3163,23904,31630.00
3164,23924,31640.00
3165,23944,31650.00
3166,23964,31660.00
3167,23976,31670.00
3168,23992,31680.00
3169,24008,31690.00
3170,24024,31700.00
3171,24036,31710.00
3172,24052,31720.00
3173,24068,31730.00
3174,24084,31740.00
3175,24100,31750.00
3176,24116,31760.00
3177,24136,31770.00
3178,24156,31780.00
3179,24176,31790.00
3180,24192,31800.00
3181,24220,31810.00
3182,24236,31820.00
3183,24268,31830.00
3184,24288,31840.00
3185,24272,31850.00
3186,24192,31860.00
3187,24060,31870.00
3188,23904,31880.00
3189,23752,31890.00
3190,23648,31900.00
3191,23592,31910.00
3192,23584,31920.00
3193,23608,31930.00
3194,23636,31940.00
3195,23668,31950.00
3196,23704,31960.00
3197,23740,31970.00
3198,23768,31980.00
3199,23788,31990.00
3200,23788,32000.00
3201,23784,32010.00
3202,23776,32020.00
3203,23772,32030.00
3204,23764,32040.00
3205,23776,32050.00
3206,23792,32060.00
3207,23812,32070.00
3208,23844,32080.00
3209,23872,32090.00
3210,23904,32100.00
3211,23932,32110.00
3212,23956,32120.00
3213,23980,32130.00
3214,24004,32140.00
3215,24020,32150.00
3216,24036,32160.00
3217,24052,32170.00
3218,24072,32180.00
3219,24088,32190.00
3220,24108,32200.00
3221,24124,32210.00
3222,24140,32220.00
3223,24152,32230.00
3224,24168,32240.00
3225,24188,32250.00
3226,24208,32260.00
3227,24228,32270.00
3228,24252,32280.00
3229,24276,32290.00
3230,24296,32300.00
3231,24316,32310.00
3232,24292,32320.00
3233,24204,32330.00
3234,24056,32340.00
3235,23888,32350.00
3236,23728,32360.00
3237,23616,32370.00
3238,23564,32380.00
3239,23556,32390.00
3240,23572,32400.00
3241,23596,32410.00
3242,23624,32420.00
3243,23644,32430.00
3244,23668,32440.00
3245,23692,32450.00
3246,23712,32460.00
3247,23720,32470.00
3248,23728,32480.00
3249,23724,32490.00
3250,23724,32500.00
3251,23724,32510.00
3252,23728,32520.00
3253,23748,32530.00
3254,23764,32540.00
3255,23788,32550.00
3256,23816,32560.00
3257,23848,32570.00
3258,23872,32580.00
3259,23904,32590.00
3260,23928,32600.00
3261,23948,32610.00
3262,23972,32620.00
3263,23988,32630.00
3264,24004,32640.00
3265,24024,32650.00
3266,24040,32660.00
3267,24056,32670.00
3268,24072,32680.00
3269,24088,32690.00
3270,24104,32700.00
3271,24124,32710.00
3272,24144,32720.00
3273,24164,32730.00
3274,24184,32740.00
3275,24208,32750.00
3276,24228,32760.00
3277,24252,32770.00
3278,24280,32780.00
3279,24288,32790.00
3280,24252,32800.00
3281,24148,32810.00
3282,23988,32820.00
3283,23820,32830.00
3284,23672,32840.00
3285,23572,32850.00
3286,23536,32860.00
3287,23532,32870.00
3288,23556,32880.00
3289,23580,32890.00
3290,23604,32900.00
3291,23624,32910.00
3292,23648,32920.00
3293,23676,32930.00
3294,23692,32940.00
3295,23704,32950.00
3296,23704,32960.00
3297,23704,32970.00
3298,23704,32980.00
3299,23704,32990.00
3300,23716,33000.00
3301,23728,33010.00
3302,23748,33020.00
3303,23776,33030.00
3304,23804,33040.00
3305,23832,33050.00
3306,23860,33060.00
3307,23892,33070.00
3308,23908,33080.00
3309,23936,33090.00
3310,23952,33100.00
3311,23972,33110.00
3312,23992,33120.00
3313,24004,33130.00
3314,24020,33140.00
3315,24036,33150.00
3316,24048,33160.00
3317,24064,33170.00
3318,24076,33180.00
3319,24096,33190.00
3320,24116,33200.00
3321,24140,33210.00
3322,24152,33220.00
3323,24176,33230.00
3324,24196,33240.00
3325,24220,33250.00
3326,24244,33260.00
3327,24264,33270.00
3328,24260,33280.00
3329,24192,33290.00
3330,24060,33300.00
3331,23896,33310.00
3332,23732,33320.00
3333,23612,33330.00
3334,23544,33340.00
3335,23524,33350.00
3336,23540,33360.00
3337,23568,33370.00
3338,23600,33380.00
3339,23636,33390.00
3340,23672,33400.00
3341,23708,33410.00
3342,23724,33420.00
3343,23732,33430.00
3344,23728,33440.00
3345,23716,33450.00
3346,23704,33460.00
3347,23696,33470.00
3348,23696,33480.00
3349,23704,33490.00
3350,23724,33500.00
3351,23744,33510.00
3352,23772,33520.00
3353,23796,33530.00
3354,23824,33540.00
3355,23848,33550.00
3356,23872,33560.00
3357,23896,33570.00
3358,23916,33580.00
3359,23932,33590.00
3360,23944,33600.00
3361,23956,33610.00
3362,23964,33620.00
3363,23980,33630.00
3364,23992,33640.00
3365,24008,33650.00
3366,24024,33660.00
3367,24040,33670.00
3368,24060,33680.00
3369,24080,33690.00
3370,24104,33700.00
3371,24120,33710.00
3372,24116,33720.00
3373,24048,33730.00
3374,23928,33740.00
3375,23776,33750.00
3376,23628,33760.00
3377,23520,33770.00
3378,23464,33780.00
3379,23452,33790.00
3380,23472,33800.00
3381,23500,33810.00
3382,23540,33820.00
3383,23576,33830.00
3384,23624,33840.00
3385,23660,33850.00
3386,23684,33860.00
3387,23696,33870.00
3388,23700,33880.00
3389,23700,33890.00
3390,23692,33900.00
3391,23684,33910.00
3392,23680,33920.00
3393,23688,33930.00
3394,23700,33940.00
3395,23720,33950.00
3396,23736,33960.00
3397,23756,33970.00
3398,23780,33980.00
3399,23804,33990.00
3400,23816,34000.00
3401,23832,34010.00
3402,23844,34020.00
3403,23856,34030.00
3404,23872,34040.00
3405,23884,34050.00
3406,23900,34060.00
3407,23912,34070.00
3408,23920,34080.00
3409,23932,34090.00
3410,23948,34100.00
3411,23964,34110.00
3412,23992,34120.00
3413,24012,34130.00
3414,24000,34140.00
3415,23928,34150.00
3416,23792,34160.00
3417,23636,34170.00
3418,23480,34180.00
3419,23372,34190.00
3420,23316,34200.00
3421,23312,34210.00
3422,23332,34220.00
3423,23368,34230.00
3424,23404,34240.00
3425,23436,34250.00
3426,23480,34260.00
3427,23520,34270.00
3428,23544,34280.00
3429,23564,34290.00
3430,23576,34300.00
3431,23576,34310.00
3432,23576,34320.00
3433,23580,34330.00
3434,23592,34340.00
3435,23608,34350.00
3436,23636,34360.00
3437,23664,34370.00
3438,23692,34380.00
3439,23724,34390.00
3440,23760,34400.00
3441,23788,34410.00
3442,23820,34420.00
3443,23840,34430.00
3444,23860,34440.00
3445,23884,34450.00
3446,23896,34460.00
3447,23916,34470.00
3448,23928,34480.00
3449,23944,34490.00
3450,23960,34500.00
3451,23976,34510.00
3452,23996,34520.00
3453,24020,34530.00
3454,24044,34540.00
3455,24064,34550.00
3456,24056,34560.00
3457,24000,34570.00
3458,23876,34580.00
3459,23712,34590.00
3460,23556,34600.00
3461,23440,34610.00
3462,23372,34620.00
3463,23356,34630.00
3464,23372,34640.00
3465,23396,34650.00
3466,23420,34660.00
3467,23448,34670.00
3468,23476,34680.00
3469,23512,34690.00
3470,23540,34700.00
3471,23556,34710.00
3472,23568,34720.00
3473,23572,34730.00
3474,23572,34740.00
3475,23576,34750.00
3476,23584,34760.00
3477,23596,34770.00
3478,23620,34780.00
3479,23648,34790.00
3480,23676,34800.00
3481,23704,34810.00
3482,23736,34820.00
3483,23768,34830.00
3484,23800,34840.00
3485,23824,34850.00
3486,23844,34860.00
3487,23868,34870.00
3488,23884,34880.00
3489,23904,34890.00
3490,23920,34900.00
3491,23936,34910.00
3492,23952,34920.00
3493,23968,34930.00
3494,23984,34940.00
3495,24004,34950.00
3496,24020,34960.00
3497,24040,34970.00
3498,24064,34980.00
3499,24088,34990.00
3500,24108,35000.00
3501,24096,35010.00
3502,24020,35020.00
3503,23888,35030.00
3504,23732,35040.00
3505,23580,35050.00
3506,23468,35060.00
3507,23412,35070.00
3508,23396,35080.00
3509,23412,35090.00
3510,23440,35100.00
3511,23468,35110.00
3512,23496,35120.00
3513,23532,35130.00
3514,23560,35140.00
3515,23584,35150.00
3516,23600,35160.00
3517,23604,35170.00
3518,23600,35180.00
3519,23600,35190.00
3520,23600,35200.00
3521,23612,35210.00
3522,23632,35220.00
3523,23656,35230.00
3524,23680,35240.00
3525,23712,35250.00
3526,23740,35260.00
3527,23768,35270.00
3528,23800,35280.00
3529,23824,35290.00
3530,23844,35300.00
3531,23864,35310.00
3532,23884,35320.00
3533,23900,35330.00
3534,23916,35340.00
3535,23932,35350.00
3536,23944,35360.00
3537,23960,35370.00
3538,23972,35380.00
3539,23988,35390.00
3540,24004,35400.00
3541,24024,35410.00
3542,24044,35420.00
3543,24068,35430.00
3544,24084,35440.00
3545,24052,35450.00
3546,23964,35460.00
3547,23832,35470.00
3548,23692,35480.00
3549,23556,35490.00
3550,23472,35500.00
3551,23444,35510.00
3552,23440,35520.00
3553,23464,35530.00
3554,23496,35540.00
3555,23532,35550.00
3556,23576,35560.00
3557,23616,35570.00
3558,23644,35580.00
3559,23660,35590.00
3560,23664,35600.00
3561,23660,35610.00
3562,23652,35620.00
3563,23652,35630.00
3564,23652,35640.00
3565,23664,35650.00
3566,23688,35660.00
3567,23720,35670.00
3568,23752,35680.00
3569,23784,35690.00
3570,23816,35700.00
3571,23844,35710.00
3572,23872,35720.00
3573,23892,35730.00
3574,23916,35740.00
3575,23936,35750.00
3576,23956,35760.00
3577,23972,35770.00
3578,23992,35780.00
3579,24004,35790.00
3580,24024,35800.00
3581,24040,35810.00
3582,24056,35820.00
3583,24076,35830.00
3584,24100,35840.00
3585,24120,35850.00
3586,24116,35860.00
3587,24068,35870.00
3588,23956,35880.00
3589,23804,35890.00
3590,23652,35900.00
3591,23524,35910.00
3592,23444,35920.00
3593,23420,35930.00
3594,23428,35940.00
3595,23448,35950.00
3596,23472,35960.00
3597,23500,35970.00
3598,23528,35980.00
3599,23564,35990.00
3600,23588,36000.00
3601,23608,36010.00
3602,23620,36020.00
3603,23620,36030.00
3604,23624,36040.00
3605,23624,36050.00
3606,23628,36060.00
3607,23640,36070.00
3608,23668,36080.00
3609,23692,36090.00
3610,23724,36100.00
3611,23756,36110.00
3612,23788,36120.00
3613,23820,36130.00
3614,23852,36140.00
3615,23880,36150.00
3616,23908,36160.00
3617,23928,36170.00
3618,23944,36180.00
3619,23964,36190.00
3620,23980,36200.00
3621,24004,36210.00
3622,24020,36220.00
3623,24044,36230.00
3624,24060,36240.00
3625,24080,36250.00
3626,24100,36260.00
3627,24120,36270.00
3628,24144,36280.00
3629,24160,36290.00
3630,24188,36300.00
3631,24212,36310.00
3632,24212,36320.00
3633,24168,36330.00
3634,24052,36340.00
3635,23892,36350.00
3636,23724,36360.00
3637,23576,36370.00
3638,23484,36380.00
3639,23444,36390.00
3640,23440,36400.00
3641,23456,36410.00
3642,23480,36420.00
3643,23500,36430.00
3644,23524,36440.00
3645,23560,36450.00
3646,23588,36460.00
3647,23616,36470.00
3648,23628,36480.00
3649,23636,36490.00
3650,23640,36500.00
3651,23644,36510.00
3652,23648,36520.00
3653,23660,36530.00
3654,23680,36540.00
3655,23704,36550.00
3656,23736,36560.00
3657,23764,36570.00
3658,23800,36580.00
3659,23832,36590.00
3660,23864,36600.00
3661,23892,36610.00
3662,23916,36620.00
3663,23940,36630.00
3664,23960,36640.00
3665,23984,36650.00
3666,24004,36660.00
3667,24020,36670.00
3668,24048,36680.00
3669,24068,36690.00
3670,24088,36700.00
3671,24108,36710.00
3672,24132,36720.00
3673,24152,36730.00
3674,24172,36740.00
3675,24196,36750.00
3676,24212,36760.00
3677,24236,36770.00
3678,24252,36780.00
3679,24228,36790.00
3680,24136,36800.00
3681,23996,36810.00
3682,23836,36820.00
3683,23680,36830.00
3684,23568,36840.00
3685,23504,36850.00
3686,23484,36860.00
3687,23492,36870.00
3688,23520,36880.00
3689,23548,36890.00
3690,23572,36900.00
3691,23612,36910.00
3692,23644,36920.00
3693,23672,36930.00
3694,23692,36940.00
3695,23700,36950.00
3696,23696,36960.00
3697,23700,36970.00
3698,23696,36980.00
3699,23704,36990.00
3700,23720,37000.00
3701,23744,37010.00
3702,23776,37020.00
3703,23808,37030.00
3704,23840,37040.00
3705,23872,37050.00
3706,23904,37060.00
3707,23932,37070.00
3708,23964,37080.00
3709,23984,37090.00
3710,24008,37100.00
3711,24024,37110.00
3712,24040,37120.00
3713,24056,37130.00
3714,24080,37140.00
3715,24092,37150.00
3716,24112,37160.00
3717,24132,37170.00
3718,24152,37180.00
3719,24172,37190.00
3720,24192,37200.00
3721,24216,37210.00
3722,24220,37220.00
3723,24172,37230.00
3724,24060,37240.00
3725,23916,37250.00
3726,23764,37260.00
3727,23628,37270.00
3728,23540,37280.00
3729,23500,37290.00
3730,23492,37300.00
3731,23512,37310.00
3732,23544,37320.00
3733,23576,37330.00
3734,23616,37340.00
3735,23656,37350.00
3736,23692,37360.00
3737,23708,37370.00
3738,23712,37380.00
3739,23708,37390.00
3740,23704,37400.00
3741,23700,37410.00
3742,23704,37420.00
3743,23716,37430.00
3744,23736,37440.00
3745,23760,37450.00
3746,23792,37460.00
3747,23832,37470.00
3748,23864,37480.00
3749,23896,37490.00
3750,23928,37500.00
3751,23956,37510.00
3752,23980,37520.00
3753,24004,37530.00
3754,24020,37540.00
3755,24040,37550.00
3756,24060,37560.00
3757,24080,37570.00
3758,24100,37580.00
3759,24120,37590.00
3760,24140,37600.00
3761,24128,37610.00
3762,24068,37620.00
3763,23944,37630.00
3764,23800,37640.00
3765,23656,37650.00
3766,23548,37660.00
3767,23488,37670.00
3768,23476,37680.00
3769,23488,37690.00
3770,23516,37700.00
3771,23544,37710.00
3772,23584,37720.00
3773,23624,37730.00
3774,23668,37740.00
3775,23688,37750.00
3776,23708,37760.00
3777,23712,37770.00
3778,23708,37780.00
3779,23704,37790.00
3780,23704,37800.00
3781,23712,37810.00
3782,23728,37820.00
3783,23748,37830.00
3784,23780,37840.00
3785,23812,37850.00
3786,23848,37860.00
3787,23880,37870.00
3788,23912,37880.00
3789,23948,37890.00
3790,23968,37900.00
3791,23996,37910.00
3792,24020,37920.00
3793,24040,37930.00
3794,24060,37940.00
3795,24084,37950.00
3796,24104,37960.00
3797,24132,37970.00
3798,24152,37980.00
3799,24144,37990.00
3800,24076,38000.00
3801,23948,38010.00
3802,23796,38020.00
3803,23644,38030.00
3804,23528,38040.00
3805,23464,38050.00
3806,23448,38060.00
3807,23468,38070.00
3808,23492,38080.00
3809,23520,38090.00
3810,23560,38100.00
3811,23600,38110.00
3812,23636,38120.00
3813,23668,38130.00
3814,23688,38140.00
3815,23696,38150.00
3816,23696,38160.00
3817,23696,38170.00
3818,23700,38180.00
3819,23708,38190.00
3820,23720,38200.00
3821,23740,38210.00
3822,23764,38220.00
3823,23800,38230.00
3824,23832,38240.00
3825,23864,38250.00
3826,23896,38260.00
3827,23928,38270.00
3828,23956,38280.00
3829,23980,38290.00
3830,24000,38300.00
3831,24016,38310.00
3832,24044,38320.00
3833,24060,38330.00
3834,24076,38340.00
3835,24096,38350.00
3836,24124,38360.00
3837,24144,38370.00
3838,24156,38380.00
3839,24108,38390.00
3840,23992,38400.00
3841,23840,38410.00
3842,23684,38420.00
3843,23552,38430.00
3844,23468,38440.00
3845,23444,38450.00
3846,23452,38460.00
3847,23480,38470.00
3848,23512,38480.00
3849,23548,38490.00
3850,23592,38500.00
3851,23632,38510.00
3852,23664,38520.00
3853,23684,38530.00
3854,23696,38540.00
3855,23696,38550.00
3856,23696,38560.00
3857,23696,38570.00
3858,23704,38580.00
3859,23716,38590.00
3860,23736,38600.00
3861,23764,38610.00
3862,23796,38620.00
3863,23828,38630.00
3864,23864,38640.00
3865,23896,38650.00
3866,23924,38660.00
3867,23952,38670.00
3868,23976,38680.00
3869,23992,38690.00
3870,24012,38700.00
3871,24032,38710.00
3872,24044,38720.00
3873,24064,38730.00
3874,24084,38740.00
3875,24104,38750.00
3876,24124,38760.00
3877,24148,38770.00
3878,24168,38780.00
3879,24184,38790.00
3880,24156,38800.00
3881,24060,38810.00
3882,23916,38820.00
3883,23752,38830.00
3884,23604,38840.00
3885,23508,38850.00
3886,23460,38860.00
3887,23464,38870.00
3888,23488,38880.00
3889,23520,38890.00
3890,23560,38900.00
3891,23600,38910.00
3892,23644,38920.00
3893,23676,38930.00
3894,23696,38940.00
3895,23704,38950.00
3896,23704,38960.00
3897,23696,38970.00
3898,23700,38980.00
3899,23700,38990.00
3900,23708,39000.00
3901,23728,39010.00
3902,23752,39020.00
3903,23784,39030.00
3904,23816,39040.00
3905,23844,39050.00
3906,23876,39060.00
3907,23904,39070.00
3908,23932,39080.00
3909,23960,39090.00
3910,23976,39100.00
3911,23996,39110.00
3912,24016,39120.00
3913,24032,39130.00
3914,24048,39140.00
3915,24064,39150.00
3916,24084,39160.00
3917,24104,39170.00
3918,24124,39180.00
3919,24132,39190.00
3920,24112,39200.00
3921,24028,39210.00
3922,23896,39220.00
3923,23748,39230.00
3924,23612,39240.00
3925,23520,39250.00
3926,23480,39260.00
3927,23484,39270.00
3928,23504,39280.00
3929,23540,39290.00
3930,23588,39300.00
3931,23640,39310.00
3932,23692,39320.00
3933,23724,39330.00
3934,23740,39340.00
3935,23740,39350.00
3936,23732,39360.00
3937,23720,39370.00
3938,23712,39380.00
3939,23716,39390.00
3940,23728,39400.00
3941,23748,39410.00
3942,23780,39420.00
3943,23812,39430.00
3944,23844,39440.00
3945,23876,39450.00
3946,23904,39460.00
3947,23936,39470.00
3948,23960,39480.00
3949,23980,39490.00
3950,24000,39500.00
3951,24020,39510.00
3952,24032,39520.00
3953,24052,39530.00
3954,24072,39540.00
3955,24096,39550.00
3956,24112,39560.00
3957,24116,39570.00
3958,24052,39580.00
3959,23932,39590.00
3960,23780,39600.00
3961,23624,39610.00
3962,23504,39620.00
3963,23432,39630.00
3964,23420,39640.00
3965,23432,39650.00
3966,23460,39660.00
3967,23500,39670.00
3968,23536,39680.00
3969,23588,39690.00
3970,23624,39700.00
3971,23648,39710.00
3972,23656,39720.00
3973,23660,39730.00
3974,23656,39740.00
3975,23648,39750.00
3976,23648,39760.00
3977,23652,39770.00
3978,23672,39780.00
3979,23700,39790.00
3980,23724,39800.00
3981,23756,39810.00
3982,23792,39820.00
3983,23824,39830.00
3984,23852,39840.00
3985,23880,39850.00
3986,23904,39860.00
3987,23924,39870.00
3988,23948,39880.00
3989,23968,39890.00
3990,23984,39900.00
3991,24004,39910.00
3992,24024,39920.00
3993,24044,39930.00
3994,24060,39940.00
3995,24052,39950.00
3996,23976,39960.00
3997,23832,39970.00
3998,23676,39980.00
3999,23520,39990.00
4000,23412,40000.00
4001,23356,40010.00
4002,23348,40020.00
4003,23368,40030.00
4004,23396,40040.00
4005,23428,40050.00
4006,23460,40060.00
4007,23492,40070.00
4008,23528,40080.00
4009,23556,40090.00
4010,23568,40100.00
4011,23568,40110.00
4012,23572,40120.00
4013,23572,40130.00
4014,23572,40140.00
4015,23580,40150.00
4016,23600,40160.00
4017,23624,40170.00
4018,23648,40180.00
4019,23680,40190.00
4020,23708,40200.00
4021,23740,40210.00
4022,23768,40220.00
4023,23800,40230.00
4024,23820,40240.00
4025,23844,40250.00
4026,23864,40260.00
4027,23884,40270.00
4028,23904,40280.00
4029,23920,40290.00
4030,23940,40300.00
4031,23960,40310.00
4032,23980,40320.00
4033,24000,40330.00
4034,24020,40340.00
4035,24028,40350.00
4036,23976,40360.00
4037,23860,40370.00
4038,23696,40380.00
4039,23540,40390.00
4040,23404,40400.00
4041,23332,40410.00
4042,23308,40420.00
4043,23320,40430.00
4044,23348,40440.00
4045,23376,40450.00
4046,23408,40460.00
4047,23448,40470.00
4048,23480,40480.00
4049,23512,40490.00
4050,23528,40500.00
4051,23532,40510.00
4052,23532,40520.00
4053,23528,40530.00
4054,23528,40540.00
4055,23532,40550.00
4056,23540,40560.00
4057,23560,40570.00
4058,23584,40580.00
4059,23612,40590.00
4060,23640,40600.00
4061,23672,40610.00
4062,23704,40620.00
4063,23724,40630.00
4064,23748,40640.00
4065,23768,40650.00
4066,23784,40660.00
4067,23804,40670.00
4068,23816,40680.00
4069,23828,40690.00
4070,23844,40700.00
4071,23856,40710.00
4072,23872,40720.00
4073,23892,40730.00
4074,23912,40740.00
4075,23936,40750.00
4076,23960,40760.00
4077,23968,40770.00
4078,23924,40780.00
4079,23812,40790.00
4080,23660,40800.00
4081,23504,40810.00
4082,23380,40820.00
4083,23312,40830.00
4084,23300,40840.00
4085,23312,40850.00
4086,23348,40860.00
4087,23388,40870.00
4088,23432,40880.00
4089,23476,40890.00
4090,23516,40900.00
4091,23532,40910.00
4092,23540,40920.00
4093,23536,40930.00
4094,23528,40940.00
4095,23520,40950.00
4096,23520,40960.00
4097,23532,40970.00
4098,23552,40980.00
4099,23576,40990.00
4100,23604,41000.00
4101,23632,41010.00
4102,23664,41020.00
4103,23684,41030.00
4104,23712,41040.00
4105,23732,41050.00
4106,23748,41060.00
4107,23768,41070.00
4108,23784,41080.00
4109,23800,41090.00
4110,23816,41100.00
4111,23828,41110.00
4112,23848,41120.00
4113,23860,41130.00
4114,23880,41140.00
4115,23904,41150.00
4116,23920,41160.00
4117,23912,41170.00
4118,23836,41180.00
4119,23708,41190.00
4120,23552,41200.00
4121,23408,41210.00
4122,23312,41220.00
4123,23264,41230.00
4124,23264,41240.00
4125,23292,41250.00
4126,23320,41260.00
4127,23356,41270.00
4128,23392,41280.00
4129,23440,41290.00
4130,23472,41300.00
4131,23492,41310.00
4132,23504,41320.00
4133,23504,41330.00
4134,23500,41340.00
4135,23496,41350.00
4136,23500,41360.00
4137,23520,41370.00
4138,23544,41380.00
4139,23564,41390.00
4140,23592,41400.00
4141,23628,41410.00
4142,23656,41420.00
4143,23684,41430.00
4144,23712,41440.00
4145,23736,41450.00
4146,23760,41460.00
4147,23776,41470.00
4148,23800,41480.00
4149,23816,41490.00
4150,23832,41500.00
4151,23848,41510.00
4152,23864,41520.00
4153,23876,41530.00
4154,23888,41540.00
4155,23908,41550.00
4156,23924,41560.00
4157,23944,41570.00
4158,23964,41580.00
4159,23980,41590.00
4160,23972,41600.00
4161,23884,41610.00
4162,23740,41620.00
4163,23560,41630.00
4164,23396,41640.00
4165,23292,41650.00
4166,23244,41660.00
4167,23240,41670.00
4168,23260,41680.00
4169,23288,41690.00
4170,23308,41700.00
4171,23336,41710.00
4172,23368,41720.00
4173,23400,41730.00
4174,23428,41740.00
4175,23444,41750.00
4176,23460,41760.00
4177,23460,41770.00
4178,23460,41780.00
4179,23464,41790.00
4180,23472,41800.00
4181,23492,41810.00
4182,23520,41820.00
4183,23548,41830.00
4184,23580,41840.00
4185,23612,41850.00
4186,23644,41860.00
4187,23668,41870.00
4188,23692,41880.00
4189,23716,41890.00
4190,23740,41900.00
4191,23756,41910.00
4192,23772,41920.00
4193,23792,41930.00
4194,23808,41940.00
4195,23828,41950.00
4196,23848,41960.00
4197,23864,41970.00
4198,23880,41980.00
4199,23892,41990.00
4200,23912,42000.00
4201,23936,42010.00
4202,23952,42020.00
4203,23972,42030.00
4204,23996,42040.00
4205,24012,42050.00
4206,24012,42060.00
4207,23952,42070.00
4208,23816,42080.00
4209,23640,42090.00
4210,23468,42100.00
4211,23340,42110.00
4212,23272,42120.00
4213,23252,42130.00
4214,23264,42140.00
4215,23292,42150.00
4216,23312,42160.00
4217,23336,42170.00
4218,23368,42180.00
4219,23404,42190.00
4220,23432,42200.00
4221,23452,42210.00
4222,23464,42220.00
4223,23468,42230.00
4224,23468,42240.00
4225,23468,42250.00
4226,23472,42260.00
4227,23492,42270.00
4228,23508,42280.00
4229,23536,42290.00
4230,23568,42300.00
4231,23600,42310.00
4232,23632,42320.00
4233,23664,42330.00
4234,23688,42340.00
4235,23712,42350.00
4236,23732,42360.00
4237,23748,42370.00
4238,23768,42380.00
4239,23788,42390.00
4240,23804,42400.00
4241,23816,42410.00
4242,23836,42420.00
4243,23852,42430.00
4244,23868,42440.00
4245,23884,42450.00
4246,23900,42460.00
4247,23912,42470.00
4248,23932,42480.00
4249,23952,42490.00
4250,23972,42500.00
4251,23996,42510.00
4252,24012,42520.00
4253,24004,42530.00
4254,23928,42540.00
4255,23796,42550.00
4256,23624,42560.00
4257,23464,42570.00
4258,23352,42580.00
4259,23292,42590.00
4260,23284,42600.00
4261,23300,42610.00
4262,23324,42620.00
4263,23360,42630.00
4264,23400,42640.00
4265,23444,42650.00
4266,23484,42660.00
4267,23508,42670.00
4268,23516,42680.00
4269,23520,42690.00
4270,23512,42700.00
4271,23504,42710.00
4272,23504,42720.00
4273,23512,42730.00
4274,23532,42740.00
4275,23552,42750.00
4276,23584,42760.00
4277,23608,42770.00
4278,23632,42780.00
4279,23656,42790.00
4280,23676,42800.00
4281,23688,42810.00
4282,23704,42820.00
4283,23724,42830.00
4284,23744,42840.00
4285,23756,42850.00
4286,23776,42860.00
4287,23792,42870.00
4288,23812,42880.00
4289,23828,42890.00
4290,23852,42900.00
4291,23872,42910.00
4292,23892,42920.00
4293,23908,42930.00
4294,23904,42940.00
4295,23836,42950.00
4296,23704,42960.00
4297,23544,42970.00
4298,23384,42980.00
4299,23264,42990.00
4300,23200,43000.00
4301,23188,43010.00
4302,23196,43020.00
4303,23232,43030.00
4304,23264,43040.00
4305,23304,43050.00
4306,23348,43060.00
4307,23388,43070.00
4308,23408,43080.00
4309,23420,43090.00
4310,23416,43100.00
4311,23408,43110.00
4312,23400,43120.00
4313,23400,43130.00
4314,23408,43140.00
4315,23428,43150.00
4316,23460,43160.00
4317,23496,43170.00
4318,23536,43180.00
4319,23572,43190.00
4320,23608,43200.00
4321,23644,43210.00
4322,23672,43220.00
4323,23696,43230.00
4324,23716,43240.00
4325,23736,43250.00
4326,23756,43260.00
4327,23776,43270.00
4328,23800,43280.00
4329,23820,43290.00
4330,23844,43300.00
4331,23852,43310.00
4332,23800,43320.00
4333,23684,43330.00
4334,23528,43340.00
4335,23372,43350.00
4336,23252,43360.00
4337,23192,43370.00
4338,23180,43380.00
4339,23200,43390.00
4340,23232,43400.00
4341,23268,43410.00
4342,23304,43420.00
4343,23336,43430.00
4344,23376,43440.00
4345,23404,43450.00
4346,23420,43460.00
4347,23428,43470.00
4348,23428,43480.00
4349,23424,43490.00
4350,23420,43500.00
4351,23432,43510.00
4352,23444,43520.00
4353,23472,43530.00
4354,23496,43540.00
4355,23528,43550.00
4356,23560,43560.00
4357,23592,43570.00
4358,23624,43580.00
4359,23652,43590.00
4360,23672,43600.00
4361,23692,43610.00
4362,23712,43620.00
4363,23728,43630.00
4364,23748,43640.00
4365,23772,43650.00
4366,23796,43660.00
4367,23812,43670.00
4368,23808,43680.00
4369,23736,43690.00
4370,23600,43700.00
4371,23432,43710.00
4372,23276,43720.00
4373,23172,43730.00
4374,23124,43740.00
4375,23128,43750.00
4376,23160,43760.00
4377,23196,43770.00
4378,23228,43780.00
4379,23256,43790.00
4380,23292,43800.00
4381,23328,43810.00
4382,23356,43820.00
4383,23380,43830.00
4384,23392,43840.00
4385,23400,43850.00
4386,23400,43860.00
4387,23404,43870.00
4388,23420,43880.00
4389,23432,43890.00
4390,23464,43900.00
4391,23492,43910.00
4392,23532,43920.00
4393,23568,43930.00
4394,23596,43940.00
4395,23628,43950.00
4396,23656,43960.00
4397,23680,43970.00
4398,23704,43980.00
4399,23724,43990.00
4400,23740,44000.00
4401,23760,44010.00
4402,23784,44020.00
4403,23804,44030.00
4404,23824,44040.00
4405,23840,44050.00
4406,23812,44060.00
4407,23712,44070.00
4408,23572,44080.00
4409,23412,44090.00
4410,23276,44100.00
4411,23196,44110.00
4412,23160,44120.00
4413,23176,44130.00
4414,23204,44140.00
4415,23232,44150.00
4416,23260,44160.00
4417,23296,44170.00
4418,23336,44180.00
4419,23376,44190.00
4420,23400,44200.00
4421,23424,44210.00
4422,23436,44220.00
4423,23440,44230.00
4424,23440,44240.00
4425,23444,44250.00
4426,23460,44260.00
4427,23476,44270.00
4428,23504,44280.00
4429,23536,44290.00
4430,23572,44300.00
4431,23608,44310.00
4432,23640,44320.00
4433,23676,44330.00
4434,23704,44340.00
4435,23728,44350.00
4436,23752,44360.00
4437,23776,44370.00
4438,23796,44380.00
4439,23820,44390.00
4440,23840,44400.00
4441,23860,44410.00
4442,23864,44420.00
4443,23820,44430.00
4444,23712,44440.00
4445,23568,44450.00
4446,23420,44460.00
4447,23300,44470.00
4448,23240,44480.00
4449,23224,44490.00
4450,23236,44500.00
4451,23264,44510.00
4452,23300,44520.00
4453,23332,44530.00
4454,23376,44540.00
4455,23420,44550.00
4456,23452,44560.00
4457,23476,44570.00
4458,23492,44580.00
4459,23492,44590.00
4460,23492,44600.00
4461,23496,44610.00
4462,23508,44620.00
4463,23520,44630.00
4464,23548,44640.00
4465,23576,44650.00
4466,23608,44660.00
4467,23648,44670.00
4468,23680,44680.00
4469,23716,44690.00
4470,23748,44700.00
4471,23772,44710.00
4472,23800,44720.00
4473,23820,44730.00
4474,23848,44740.00
4475,23864,44750.00
4476,23880,44760.00
4477,23904,44770.00
4478,23924,44780.00
4479,23940,44790.00
4480,23968,44800.00
4481,23988,44810.00
4482,24012,44820.00
4483,24012,44830.00
4484,23948,44840.00
4485,23820,44850.00
4486,23656,44860.00
4487,23496,44870.00
4488,23380,44880.00
4489,23316,44890.00
4490,23304,44900.00
4491,23320,44910.00
4492,23352,44920.00
4493,23380,44930.00
4494,23416,44940.00
4495,23452,44950.00
4496,23488,44960.00
4497,23516,44970.00
4498,23536,44980.00
4499,23544,44990.00
4500,23544,45000.00
4501,23552,45010.00
4502,23556,45020.00
4503,23564,45030.00
4504,23584,45040.00
4505,23608,45050.00
4506,23636,45060.00
4507,23672,45070.00
4508,23704,45080.00
4509,23736,45090.00
4510,23768,45100.00
4511,23796,45110.00
4512,23824,45120.00
4513,23852,45130.00
4514,23872,45140.00
4515,23896,45150.00
4516,23920,45160.00
4517,23940,45170.00
4518,23964,45180.00
4519,23976,45190.00
4520,23996,45200.00
4521,24012,45210.00
4522,24036,45220.00
4523,24056,45230.00
4524,24076,45240.00
4525,24100,45250.00
4526,24128,45260.00
4527,24148,45270.00
4528,24136,45280.00
4529,24056,45290.00
4530,23920,45300.00
4531,23752,45310.00
4532,23584,45320.00
4533,23468,45330.00
4534,23408,45340.00
4535,23396,45350.00
4536,23412,45360.00
4537,23444,45370.00
4538,23480,45380.00
4539,23520,45390.00
4540,23560,45400.00
4541,23596,45410.00
4542,23620,45420.00
4543,23632,45430.00
4544,23644,45440.00
4545,23640,45450.00
4546,23640,45460.00
4547,23644,45470.00
4548,23652,45480.00
4549,23668,45490.00
4550,23688,45500.00
4551,23720,45510.00
4552,23748,45520.00
4553,23784,45530.00
4554,23812,45540.00
4555,23844,45550.00
4556,23876,45560.00
4557,23900,45570.00
4558,23928,45580.00
4559,23952,45590.00
4560,23972,45600.00
4561,23996,45610.00
4562,24012,45620.00
4563,24028,45630.00
4564,24044,45640.00
4565,24060,45650.00
4566,24076,45660.00
4567,24096,45670.00
4568,24112,45680.00
4569,24136,45690.00
4570,24160,45700.00
4571,24184,45710.00
4572,24196,45720.00
4573,24156,45730.00
4574,24048,45740.00
4575,23904,45750.00
4576,23748,45760.00
4577,23620,45770.00
4578,23528,45780.00
4579,23496,45790.00
4580,23500,45800.00
4581,23532,45810.00
4582,23572,45820.00
4583,23616,45830.00
4584,23668,45840.00
4585,23712,45850.00
4586,23740,45860.00
4587,23752,45870.00
4588,23752,45880.00
4589,23740,45890.00
4590,23728,45900.00
4591,23720,45910.00
4592,23724,45920.00
4593,23736,45930.00
4594,23760,45940.00
4595,23792,45950.00
4596,23824,45960.00
4597,23860,45970.00
4598,23888,45980.00
4599,23916,45990.00
4600,23948,46000.00
4601,23976,46010.00
4602,23996,46020.00
4603,24024,46030.00
4604,24040,46040.00
4605,24060,46050.00
4606,24080,46060.00
4607,24096,46070.00
4608,24112,46080.00
4609,24132,46090.00
4610,24156,46100.00
4611,24176,46110.00
4612,24192,46120.00
4613,24172,46130.00
4614,24092,46140.00
4615,23956,46150.00
4616,23800,46160.00
4617,23652,46170.00
4618,23548,46180.00
4619,23496,46190.00
4620,23488,46200.00
4621,23508,46210.00
4622,23540,46220.00
4623,23576,46230.00
4624,23620,46240.00
4625,23664,46250.00
4626,23692,46260.00
4627,23712,46270.00
4628,23724,46280.00
4629,23724,46290.00
4630,23712,46300.00
4631,23708,46310.00
4632,23712,46320.00
4633,23716,46330.00
4634,23732,46340.00
4635,23760,46350.00
4636,23788,46360.00
4637,23816,46370.00
4638,23848,46380.00
4639,23880,46390.00
4640,23912,46400.00
4641,23940,46410.00
4642,23964,46420.00
4643,23992,46430.00
4644,24012,46440.00
4645,24036,46450.00
4646,24056,46460.00
4647,24080,46470.00
4648,24092,46480.00
4649,24112,46490.00
4650,24124,46500.00
4651,24148,46510.00
4652,24168,46520.00
4653,24176,46530.00
4654,24148,46540.00
4655,24044,46550.00
4656,23896,46560.00
4657,23728,46570.00
4658,23584,46580.00
4659,23484,46590.00
4660,23440,46600.00
4661,23436,46610.00
4662,23464,46620.00
4663,23492,46630.00
4664,23524,46640.00
4665,23556,46650.00
4666,23600,46660.00
4667,23628,46670.00
4668,23652,46680.00
4669,23660,46690.00
4670,23664,46700.00
4671,23656,46710.00
4672,23652,46720.00
4673,23652,46730.00
4674,23660,46740.00
4675,23676,46750.00
4676,23700,46760.00
4677,23732,46770.00
4678,23760,46780.00
4679,23792,46790.00
4680,23824,46800.00
4681,23852,46810.00
4682,23876,46820.00
4683,23900,46830.00
4684,23924,46840.00
4685,23940,46850.00
4686,23960,46860.00
4687,23980,46870.00
4688,24000,46880.00
4689,24016,46890.00
4690,24036,46900.00
4691,24052,46910.00
4692,24072,46920.00
4693,24092,46930.00
4694,24112,46940.00
4695,24136,46950.00
4696,24160,46960.00
4697,24180,46970.00
4698,24196,46980.00
4699,24176,46990.00
4700,24080,47000.00
4701,23928,47010.00
4702,23748,47020.00
4703,23584,47030.00
4704,23468,47040.00
4705,23412,47050.00
4706,23408,47060.00
4707,23424,47070.00
4708,23456,47080.00
4709,23484,47090.00
4710,23524,47100.00
4711,23556,47110.00
4712,23592,47120.00
4713,23612,47130.00
4714,23628,47140.00
4715,23628,47150.00
4716,23624,47160.00
4717,23620,47170.00
4718,23620,47180.00
4719,23624,47190.00
4720,23640,47200.00
4721,23660,47210.00
4722,23684,47220.00
4723,23716,47230.00
4724,23748,47240.00
4725,23780,47250.00
4726,23804,47260.00
4727,23832,47270.00
4728,23856,47280.00
4729,23880,47290.00
4730,23896,47300.00
4731,23916,47310.00
4732,23932,47320.00
4733,23948,47330.00
4734,23964,47340.00
4735,23984,47350.00
4736,24004,47360.00
4737,24028,47370.00
4738,24044,47380.00
4739,24068,47390.00
4740,24088,47400.00
4741,24108,47410.00
4742,24128,47420.00
4743,24152,47430.00
4744,24172,47440.00
4745,24192,47450.00
4746,24216,47460.00
4747,24232,47470.00
4748,24260,47480.00
4749,24264,47490.00
4750,24212,47500.00
4751,24084,47510.00
4752,23904,47520.00
4753,23716,47530.00
4754,23560,47540.00
4755,23468,47550.00
4756,23428,47560.00
4757,23428,47570.00
4758,23456,47580.00
4759,23488,47590.00
4760,23520,47600.00
4761,23556,47610.00
4762,23592,47620.00
4763,23616,47630.00
4764,23632,47640.00
4765,23640,47650.00
4766,23636,47660.00
4767,23628,47670.00
4768,23620,47680.00
4769,23624,47690.00
4770,23632,47700.00
4771,23652,47710.00
4772,23676,47720.00
4773,23704,47730.00
4774,23736,47740.00
4775,23764,47750.00
4776,23796,47760.00
4777,23820,47770.00
4778,23844,47780.00
4779,23868,47790.00
4780,23892,47800.00
4781,23908,47810.00
4782,23932,47820.00
4783,23948,47830.00
4784,23968,47840.00
4785,23984,47850.00
4786,24000,47860.00
4787,24020,47870.00
4788,24036,47880.00
4789,24060,47890.00
4790,24084,47900.00
4791,24100,47910.00
4792,24124,47920.00
4793,24140,47930.00
4794,24164,47940.00
4795,24184,47950.00
4796,24208,47960.00
4797,24228,47970.00
4798,24252,47980.00
4799,24276,47990.00
4800,24292,48000.00
4801,24284,48010.00
4802,24204,48020.00
4803,24056,48030.00
4804,23876,48040.00
4805,23700,48050.00
4806,23564,48060.00
4807,23492,48070.00
4808,23468,48080.00
4809,23480,48090.00
4810,23508,48100.00
4811,23540,48110.00
4812,23572,48120.00
4813,23608,48130.00
4814,23640,48140.00
4815,23660,48150.00
4816,23668,48160.00
4817,23672,48170.00
4818,23664,48180.00
4819,23656,48190.00
4820,23656,48200.00
4821,23660,48210.00
4822,23668,48220.00
4823,23692,48230.00
4824,23716,48240.00
4825,23744,48250.00
4826,23768,48260.00
4827,23800,48270.00
4828,23828,48280.00
4829,23852,48290.00
4830,23880,48300.00
4831,23904,48310.00
4832,23924,48320.00
4833,23936,48330.00
4834,23960,48340.00
4835,23972,48350.00
4836,23988,48360.00
4837,24008,48370.00
4838,24024,48380.00
4839,24044,48390.00
4840,24060,48400.00
4841,24076,48410.00
4842,24096,48420.00
4843,24116,48430.00
4844,24136,48440.00
4845,24156,48450.00
4846,24180,48460.00
4847,24196,48470.00
4848,24216,48480.00
4849,24236,48490.00
4850,24256,48500.00
4851,24268,48510.00
4852,24224,48520.00
4853,24116,48530.00
4854,23960,48540.00
4855,23792,48550.00
4856,23648,48560.00
4857,23556,48570.00
4858,23520,48580.00
4859,23528,48590.00
4860,23552,48600.00
4861,23588,48610.00
4862,23628,48620.00
4863,23672,48630.00
4864,23708,48640.00
4865,23728,48650.00
4866,23740,48660.00
4867,23736,48670.00
4868,23720,48680.00
4869,23712,48690.00
4870,23704,48700.00
4871,23704,48710.00
4872,23712,48720.00
4873,23736,48730.00
4874,23760,48740.00
4875,23788,48750.00
4876,23820,48760.00
4877,23848,48770.00
4878,23872,48780.00
4879,23900,48790.00
4880,23924,48800.00
4881,23944,48810.00
4882,23964,48820.00
4883,23980,48830.00
4884,23996,48840.00
4885,24012,48850.00
4886,24028,48860.00
4887,24040,48870.00
4888,24060,48880.00
4889,24072,48890.00
4890,24092,48900.00
4891,24108,48910.00
4892,24128,48920.00
4893,24144,48930.00
4894,24168,48940.00
4895,24188,48950.00
4896,24204,48960.00
4897,24180,48970.00
4898,24092,48980.00
4899,23952,48990.00
4900,23788,49000.00
4901,23636,49010.00
4902,23536,49020.00
4903,23492,49030.00
4904,23484,49040.00
4905,23504,49050.00
4906,23532,49060.00
4907,23560,49070.00
4908,23592,49080.00
4909,23628,49090.00
4910,23652,49100.00
4911,23668,49110.00
4912,23676,49120.00
4913,23672,49130.00
4914,23664,49140.00
4915,23656,49150.00
4916,23660,49160.00
4917,23664,49170.00
4918,23680,49180.00
4919,23704,49190.00
4920,23728,49200.00
4921,23756,49210.00
4922,23788,49220.00
4923,23812,49230.00
4924,23836,49240.00
4925,23860,49250.00
4926,23880,49260.00
4927,23900,49270.00
4928,23920,49280.00
4929,23936,49290.00
4930,23952,49300.00
4931,23968,49310.00
4932,23984,49320.00
4933,23996,49330.00
4934,24016,49340.00
4935,24032,49350.00
4936,24052,49360.00
4937,24064,49370.00
4938,24084,49380.00
4939,24100,49390.00
4940,24124,49400.00
4941,24140,49410.00
4942,24160,49420.00
4943,24156,49430.00
4944,24092,49440.00
4945,23956,49450.00
4946,23784,49460.00
4947,23620,49470.00
4948,23500,49480.00
4949,23432,49490.00
4950,23412,49500.00
4951,23424,49510.00
4952,23456,49520.00
4953,23472,49530.00
4954,23492,49540.00
4955,23516,49550.00
4956,23544,49560.00
4957,23568,49570.00
4958,23580,49580.00
4959,23584,49590.00
4960,23588,49600.00
4961,23584,49610.00
4962,23584,49620.00
4963,23592,49630.00
4964,23604,49640.00
4965,23624,49650.00
4966,23640,49660.00
4967,23672,49670.00
4968,23696,49680.00
4969,23724,49690.00
4970,23748,49700.00
4971,23772,49710.00
4972,23792,49720.00
4973,23812,49730.00
4974,23832,49740.00
4975,23848,49750.00
4976,23864,49760.00
4977,23876,49770.00
4978,23892,49780.00
4979,23908,49790.00
4980,23924,49800.00
4981,23940,49810.00
4982,23960,49820.00
4983,23980,49830.00
4984,23996,49840.00
4985,24016,49850.00
4986,24036,49860.00
4987,24052,49870.00
4988,24072,49880.00
4989,24088,49890.00
4990,24108,49900.00
4991,24132,49910.00
4992,24148,49920.00
4993,24152,49930.00
4994,24100,49940.00
4995,23980,49950.00
4996,23808,49960.00
4997,23632,49970.00
4998,23496,49980.00
4999,23420,49990.00
5000,23388,50000.00
5001,23396,50010.00
5002,23416,50020.00
5003,23436,50030.00
5004,23452,50040.00
5005,23472,50050.00
5006,23500,50060.00
5007,23520,50070.00
5008,23540,50080.00
5009,23552,50090.00
5010,23556,50100.00
5011,23556,50110.00
5012,23552,50120.00
5013,23556,50130.00
5014,23564,50140.00
5015,23580,50150.00
5016,23604,50160.00
5017,23628,50170.00
5018,23660,50180.00
5019,23684,50190.00
5020,23712,50200.00
5021,23736,50210.00
5022,23760,50220.00
5023,23776,50230.00
5024,23796,50240.00
5025,23812,50250.00
5026,23828,50260.00
5027,23844,50270.00
5028,23864,50280.00
5029,23876,50290.00
5030,23892,50300.00
5031,23908,50310.00
5032,23928,50320.00
5033,23948,50330.00
5034,23964,50340.00
5035,23988,50350.00
5036,24008,50360.00
5037,24028,50370.00
5038,24044,50380.00
5039,24060,50390.00
5040,24076,50400.00
5041,24096,50410.00
5042,24112,50420.00
5043,24132,50430.00
5044,24152,50440.00
5045,24168,50450.00
5046,24148,50460.00
5047,24056,50470.00
5048,23904,50480.00
5049,23728,50490.00
5050,23572,50500.00
5051,23460,50510.00
5052,23408,50520.00
5053,23400,50530.00
5054,23416,50540.00
5055,23444,50550.00
5056,23468,50560.00
5057,23484,50570.00
5058,23512,50580.00
5059,23536,50590.00
5060,23556,50600.00
5061,23568,50610.00
5062,23568,50620.00
5063,23560,50630.00
5064,23556,50640.00
5065,23560,50650.00
5066,23564,50660.00
5067,23572,50670.00
5068,23596,50680.00
5069,23628,50690.00
5070,23652,50700.00
5071,23684,50710.00
5072,23712,50720.00
5073,23736,50730.00
5074,23760,50740.00
5075,23776,50750.00
5076,23796,50760.00
5077,23816,50770.00
5078,23828,50780.00
5079,23844,50790.00
5080,23856,50800.00
5081,23868,50810.00
5082,23892,50820.00
5083,23904,50830.00
5084,23924,50840.00
5085,23940,50850.00
5086,23960,50860.00
5087,23976,50870.00
5088,23992,50880.00
5089,24008,50890.00
5090,24032,50900.00
5091,24048,50910.00
5092,24068,50920.00
5093,24080,50930.00
5094,24108,50940.00
5095,24124,50950.00
5096,24128,50960.00
5097,24092,50970.00
5098,23980,50980.00
5099,23820,50990.00
5100,23652,51000.00
5101,23512,51010.00
5102,23436,51020.00
5103,23408,51030.00
5104,23416,51040.00
5105,23436,51050.00
5106,23468,51060.00
5107,23488,51070.00
5108,23516,51080.00
5109,23544,51090.00
5110,23572,51100.00
5111,23584,51110.00
5112,23584,51120.00
5113,23584,51130.00
5114,23576,51140.00
5115,23576,51150.00
5116,23576,51160.00
5117,23592,51170.00
5118,23612,51180.00
5119,23636,51190.00
5120,23664,51200.00
5121,23692,51210.00
5122,23716,51220.00
5123,23748,51230.00
5124,23768,51240.00
5125,23788,51250.00
5126,23804,51260.00
5127,23820,51270.00
5128,23840,51280.00
5129,23856,51290.00
5130,23872,51300.00
5131,23888,51310.00
5132,23904,51320.00
5133,23916,51330.00
5134,23936,51340.00
5135,23952,51350.00
5136,23968,51360.00
5137,23984,51370.00
5138,24000,51380.00
5139,24016,51390.00
5140,24036,51400.00
5141,24056,51410.00
5142,24076,51420.00
5143,24092,51430.00
5144,24116,51440.00
5145,24120,51450.00
5146,24068,51460.00
5147,23948,51470.00
5148,23780,51480.00
5149,23612,51490.00
5150,23476,51500.00
5151,23400,51510.00
5152,23376,51520.00
5153,23380,51530.00
5154,23400,51540.00
5155,23424,51550.00
5156,23436,51560.00
5157,23456,51570.00
5158,23488,51580.00
5159,23508,51590.00
5160,23528,51600.00
5161,23540,51610.00
5162,23540,51620.00
5163,23540,51630.00
5164,23536,51640.00
5165,23540,51650.00
5166,23556,51660.00
5167,23572,51670.00
5168,23596,51680.00
5169,23624,51690.00
5170,23652,51700.00
5171,23680,51710.00
5172,23704,51720.00
5173,23728,51730.00
5174,23752,51740.00
5175,23768,51750.00
5176,23784,51760.00
5177,23800,51770.00
5178,23824,51780.00
5179,23836,51790.00
5180,23852,51800.00
5181,23864,51810.00
5182,23884,51820.00
5183,23900,51830.00
5184,23916,51840.00
5185,23936,51850.00
5186,23956,51860.00
5187,23972,51870.00
5188,23988,51880.00
5189,24008,51890.00
5190,23944,51900.00
5191,23964,51910.00
5192,23980,51920.00
5193,24000,51930.00
5194,24020,51940.00
5195,24036,51950.00
5196,24056,51960.00
5197,24072,51970.00
5198,24064,51980.00
5199,23988,51990.00
5200,23864,52000.00
5201,23700,52010.00
5202,23552,52020.00
5203,23440,52030.00
5204,23388,52040.00
5205,23372,52050.00
5206,23388,52060.00
5207,23412,52070.00
5208,23436,52080.00
5209,23456,52090.00
5210,23488,52100.00
5211,23512,52110.00
5212,23532,52120.00
5213,23536,52130.00
5214,23540,52140.00
5215,23532,52150.00
5216,23524,52160.00
5217,23528,52170.00
5218,23532,52180.00
5219,23548,52190.00
5220,23576,52200.00
5221,23600,52210.00
5222,23628,52220.00
5223,23656,52230.00
5224,23684,52240.00
5225,23708,52250.00
5226,23732,52260.00
5227,23748,52270.00
5228,23768,52280.00
5229,23780,52290.00
5230,23800,52300.00
5231,23816,52310.00
5232,23832,52320.00
5233,23848,52330.00
5234,23864,52340.00
5235,23880,52350.00
5236,23896,52360.00
5237,23912,52370.00
5238,23932,52380.00
5239,23952,52390.00
5240,23972,52400.00
5241,23996,52410.00
5242,24016,52420.00
5243,24028,52430.00
5244,24020,52440.00
5245,23948,52450.00
5246,23828,52460.00
5247,23688,52470.00
5248,23560,52480.00
5249,23472,52490.00
5250,23428,52500.00
5251,23424,52510.00
5252,23436,52520.00
5253,23452,52530.00
5254,23464,52540.00
5255,23488,52550.00
5256,23516,52560.00
5257,23544,52570.00
5258,23568,52580.00
5259,23576,52590.00
5260,23584,52600.00
5261,23584,52610.00
5262,23584,52620.00
5263,23588,52630.00
5264,23600,52640.00
5265,23612,52650.00
5266,23632,52660.00
5267,23660,52670.00
5268,23688,52680.00
5269,23716,52690.00
5270,23740,52700.00
5271,23768,52710.00
5272,23792,52720.00
5273,23808,52730.00
5274,23828,52740.00
5275,23844,52750.00
5276,23860,52760.00
5277,23876,52770.00
5278,23892,52780.00
5279,23908,52790.00
5280,23928,52800.00
5281,23944,52810.00
5282,23964,52820.00
5283,23988,52830.00
5284,24004,52840.00
5285,24020,52850.00
5286,24036,52860.00
5287,24056,52870.00
5288,24076,52880.00
5289,24096,52890.00
5290,24116,52900.00
5291,24120,52910.00
5292,24076,52920.00
5293,23980,52930.00
5294,23852,52940.00
5295,23712,52950.00
5296,23600,52960.00
5297,23536,52970.00
5298,23508,52980.00
5299,23508,52990.00
5300,23516,53000.00
5301,23528,53010.00
5302,23524,53020.00
5303,23536,53030.00
5304,23556,53040.00
5305,23572,53050.00
5306,23592,53060.00
5307,23596,53070.00
5308,23608,53080.00
5309,23608,53090.00
5310,23604,53100.00
5311,23600,53110.00
5312,23604,53120.00
5313,23616,53130.00
5314,23628,53140.00
5315,23648,53150.00
5316,23672,53160.00
5317,23700,53170.00
5318,23732,53180.00
5319,23752,53190.00
5320,23776,53200.00
5321,23792,53210.00
5322,23808,53220.00
5323,23824,53230.00
5324,23840,53240.00
5325,23856,53250.00
5326,23872,53260.00
5327,23892,53270.00
5328,23908,53280.00
5329,23924,53290.00
5330,23940,53300.00
5331,23960,53310.00
5332,23972,53320.00
5333,23988,53330.00
5334,24004,53340.00
5335,24020,53350.00
5336,24040,53360.00
5337,24060,53370.00
5338,24080,53380.00
5339,24100,53390.00
5340,24120,53400.00
5341,24108,53410.00
5342,24052,53420.00
5343,23960,53430.00
5344,23848,53440.00
5345,23744,53450.00
5346,23668,53460.00
5347,23624,53470.00
5348,23612,53480.00
5349,23604,53490.00
5350,23608,53500.00
5351,23612,53510.00
5352,23620,53520.00
5353,23632,53530.00
5354,23652,53540.00
5355,23668,53550.00
5356,23684,53560.00
5357,23688,53570.00
5358,23696,53580.00
5359,23696,53590.00
5360,23700,53600.00
5361,23708,53610.00
5362,23720,53620.00
5363,23736,53630.00
5364,23752,53640.00
5365,23772,53650.00
5366,23796,53660.00
5367,23816,53670.00
5368,23836,53680.00
5369,23860,53690.00
5370,23884,53700.00
5371,23912,53710.00
5372,23932,53720.00
5373,23952,53730.00
5374,23976,53740.00
5375,23996,53750.00
5376,24020,53760.00
5377,24036,53770.00
5378,24056,53780.00
5379,24076,53790.00
5380,24096,53800.00
5381,24116,53810.00
5382,24136,53820.00
5383,24152,53830.00
5384,24176,53840.00
5385,24196,53850.00
5386,24212,53860.00
5387,24236,53870.00
5388,24256,53880.00
5389,24276,53890.00
5390,24284,53900.00
5391,24268,53910.00
5392,24212,53920.00
5393,24132,53930.00
5394,24044,53940.00
5395,23960,53950.00
5396,23900,53960.00
5397,23872,53970.00
5398,23860,53980.00
5399,23868,53990.00
5400,23880,54000.00
5401,23892,54010.00
5402,23912,54020.00
5403,23932,54030.00
5404,23952,54040.00
5405,23964,54050.00
5406,23972,54060.00
5407,23972,54070.00
5408,23968,54080.00
5409,23968,54090.00
5410,23968,54100.00
5411,23980,54110.00
5412,23992,54120.00
5413,24008,54130.00
5414,24028,54140.00
5415,24048,54150.00
5416,24068,54160.00
5417,24088,54170.00
5418,24108,54180.00
5419,24128,54190.00
5420,24148,54200.00
5421,24164,54210.00
5422,24180,54220.00
5423,24200,54230.00
5424,24220,54240.00
5425,24236,54250.00
5426,24244,54260.00
5427,24256,54270.00
5428,24272,54280.00
5429,24284,54290.00
5430,24300,54300.00
5431,24316,54310.00
5432,24336,54320.00
5433,24352,54330.00
5434,24372,54340.00
5435,24380,54350.00
5436,24352,54360.00
5437,24292,54370.00
5438,24212,54380.00
5439,24120,54390.00
5440,24044,54400.00
5441,23984,54410.00
5442,23952,54420.00
5443,23940,54430.00
5444,23944,54440.00
5445,23944,54450.00
5446,23952,54460.00
5447,23960,54470.00
5448,23976,54480.00
5449,23992,54490.00
5450,24000,54500.00
5451,24008,54510.00
5452,24004,54520.00
5453,24008,54530.00
5454,24008,54540.00
5455,24008,54550.00
5456,24016,54560.00
5457,24028,54570.00
5458,24044,54580.00
5459,24064,54590.00
5460,24084,54600.00
5461,24104,54610.00
5462,24124,54620.00
5463,24144,54630.00
5464,24168,54640.00
5465,24184,54650.00
5466,24204,54660.00
5467,24224,54670.00
5468,24240,54680.00
5469,24256,54690.00
5470,24272,54700.00
5471,24292,54710.00
5472,24300,54720.00
5473,24320,54730.00
5474,24336,54740.00
5475,24352,54750.00
5476,24372,54760.00
5477,24392,54770.00
5478,24408,54780.00
5479,24428,54790.00
5480,24428,54800.00
5481,24392,54810.00
5482,24320,54820.00
5483,24240,54830.00
5484,24160,54840.00
5485,24096,54850.00
5486,24052,54860.00
5487,24036,54870.00
5488,24032,54880.00
5489,24028,54890.00
5490,24032,54900.00
5491,24036,54910.00
5492,24052,54920.00
5493,24068,54930.00
5494,24084,54940.00
5495,24096,54950.00
5496,24104,54960.00
5497,24112,54970.00
5498,24112,54980.00
5499,24112,54990.00
5500,24116,55000.00
5501,24124,55010.00
5502,24140,55020.00
5503,24156,55030.00
5504,24176,55040.00
5505,24196,55050.00
5506,24216,55060.00
5507,24240,55070.00
5508,24256,55080.00
5509,24272,55090.00
5510,24292,55100.00
5511,24308,55110.00
5512,24324,55120.00
5513,24340,55130.00
5514,24356,55140.00
5515,24372,55150.00
5516,24388,55160.00
5517,24404,55170.00
5518,24416,55180.00
5519,24428,55190.00
5520,24448,55200.00
5521,24460,55210.00
5522,24480,55220.00
5523,24500,55230.00
5524,24516,55240.00
5525,24524,55250.00
5526,24504,55260.00
5527,24456,55270.00
5528,24388,55280.00
5529,24320,55290.00
5530,24264,55300.00
5531,24228,55310.00
5532,24204,55320.00
5533,24196,55330.00
5534,24196,55340.00
5535,24204,55350.00
5536,24200,55360.00
5537,24208,55370.00
5538,24224,55380.00
5539,24240,55390.00
5540,24252,55400.00
5541,24256,55410.00
5542,24264,55420.00
5543,24264,55430.00
5544,24264,55440.00
5545,24264,55450.00
5546,24276,55460.00
5547,24284,55470.00
5548,24300,55480.00
5549,24312,55490.00
5550,24332,55500.00
5551,24348,55510.00
5552,24368,55520.00
5553,24384,55530.00
5554,24400,55540.00
5555,24416,55550.00
5556,24432,55560.00
5557,24444,55570.00
5558,24460,55580.00
5559,24472,55590.00
5560,24488,55600.00
5561,24504,55610.00
5562,24516,55620.00
5563,24532,55630.00
5564,24544,55640.00
5565,24560,55650.00
5566,24572,55660.00
5567,24592,55670.00
5568,24600,55680.00
5569,24616,55690.00
5570,24640,55700.00
5571,24652,55710.00
5572,24668,55720.00
5573,24672,55730.00
5574,24648,55740.00
5575,24604,55750.00
5576,24544,55760.00
5577,24492,55770.00
5578,24448,55780.00
5579,24424,55790.00
5580,24416,55800.00
5581,24412,55810.00
5582,24416,55820.00
5583,24420,55830.00
5584,24424,55840.00
5585,24440,55850.00
5586,24452,55860.00
5587,24460,55870.00
5588,24464,55880.00
5589,24468,55890.00
5590,24468,55900.00
5591,24464,55910.00
5592,24468,55920.00
5593,24472,55930.00
5594,24480,55940.00
5595,24488,55950.00
5596,24504,55960.00
5597,24520,55970.00
5598,24536,55980.00
5599,24552,55990.00
5600,24568,56000.00
5601,24576,56010.00
5602,24596,56020.00
5603,24608,56030.00
5604,24620,56040.00
5605,24632,56050.00
5606,24644,56060.00
5607,24656,56070.00
5608,24672,56080.00
5609,24684,56090.00
5610,24700,56100.00
5611,24716,56110.00
5612,24728,56120.00
5613,24744,56130.00
5614,24752,56140.00
5615,24768,56150.00
5616,24784,56160.00
5617,24796,56170.00
5618,24816,56180.00
5619,24824,56190.00
5620,24828,56200.00
5621,24808,56210.00
5622,24768,56220.00
5623,24716,56230.00
5624,24672,56240.00
5625,24640,56250.00
5626,24624,56260.00
5627,24616,56270.00
5628,24616,56280.00
5629,24616,56290.00
5630,24616,56300.00
5631,24620,56310.00
5632,24632,56320.00
5633,24640,56330.00
5634,24648,56340.00
5635,24652,56350.00
5636,24656,56360.00
5637,24656,56370.00
5638,24656,56380.00
5639,24660,56390.00
5640,24660,56400.00
5641,24668,56410.00
5642,24676,56420.00
5643,24688,56430.00
5644,24700,56440.00
5645,24716,56450.00
5646,24732,56460.00
5647,24744,56470.00
5648,24752,56480.00
5649,24772,56490.00
5650,24784,56500.00
5651,24796,56510.00
5652,24808,56520.00
5653,24820,56530.00
5654,24832,56540.00
5655,24844,56550.00
5656,24856,56560.00
5657,24868,56570.00
5658,24880,56580.00
5659,24900,56590.00
5660,24908,56600.00
5661,24920,56610.00
5662,24932,56620.00
5663,24944,56630.00
5664,24956,56640.00
5665,24972,56650.00
5666,24988,56660.00
5667,25000,56670.00
5668,25008,56680.00
5669,25000,56690.00
5670,24972,56700.00
5671,24932,56710.00
5672,24888,56720.00
5673,24848,56730.00
5674,24820,56740.00
5675,24804,56750.00
5676,24800,56760.00
5677,24796,56770.00
5678,24796,56780.00
5679,24796,56790.00
5680,24796,56800.00
5681,24804,56810.00
5682,24808,56820.00
5683,24808,56830.00
5684,24812,56840.00
5685,24812,56850.00
5686,24812,56860.00
5687,24808,56870.00
5688,24812,56880.00
5689,24812,56890.00
5690,24820,56900.00
5691,24828,56910.00
5692,24836,56920.00
5693,24852,56930.00
5694,24860,56940.00
5695,24872,56950.00
5696,24880,56960.00
5697,24892,56970.00
5698,24904,56980.00
5699,24916,56990.00
5700,24924,57000.00
5701,24932,57010.00
5702,24948,57020.00
5703,24956,57030.00
5704,24968,57040.00
5705,24980,57050.00
5706,24988,57060.00
5707,25000,57070.00
5708,25012,57080.00
5709,25020,57090.00
5710,25032,57100.00
5711,25044,57110.00
5712,25056,57120.00
5713,25068,57130.00
5714,25080,57140.00
5715,25088,57150.00
5716,25100,57160.00
5717,25108,57170.00
5718,25120,57180.00
5719,25132,57190.00
5720,25144,57200.00
5721,25140,57210.00
5722,25124,57220.00
5723,25084,57230.00
5724,25036,57240.00
5725,24992,57250.00
5726,24952,57260.00
5727,24936,57270.00
5728,24920,57280.00
5729,24916,57290.00
5730,24916,57300.00
5731,24904,57310.00
5732,24904,57320.00
5733,24900,57330.00
5734,24904,57340.00
5735,24904,57350.00
5736,24908,57360.00
5737,24904,57370.00
5738,24900,57380.00
5739,24896,57390.00
5740,24896,57400.00
5741,24892,57410.00
5742,24892,57420.00
5743,24896,57430.00
5744,24900,57440.00
5745,24908,57450.00
5746,24920,57460.00
5747,24932,57470.00
5748,24936,57480.00
5749,24952,57490.00
5750,24956,57500.00
5751,24968,57510.00
5752,24976,57520.00
5753,24984,57530.00
5754,24988,57540.00
5755,24996,57550.00
5756,25004,57560.00
5757,25012,57570.00
5758,25020,57580.00
5759,25032,57590.00
5760,25036,57600.00
5761,25048,57610.00
5762,25060,57620.00
5763,25068,57630.00
5764,25076,57640.00
5765,25088,57650.00
5766,25096,57660.00
5767,25108,57670.00
5768,25112,57680.00
5769,25120,57690.00
5770,25128,57700.00
5771,25140,57710.00
5772,25148,57720.00
5773,25152,57730.00
5774,25152,57740.00
5775,25124,57750.00
5776,25084,57760.00
5777,25032,57770.00
5778,24984,57780.00
5779,24948,57790.00
5780,24920,57800.00
5781,24904,57810.00
5782,24900,57820.00
5783,24896,57830.00
5784,24896,57840.00
5785,24892,57850.00
5786,24896,57860.00
5787,24896,57870.00
5788,24896,57880.00
5789,24892,57890.00
5790,24888,57900.00
5791,24880,57910.00
5792,24876,57920.00
5793,24868,57930.00
5794,24868,57940.00
5795,24872,57950.00
5796,24872,57960.00
5797,24880,57970.00
5798,24888,57980.00
5799,24900,57990.00
5800,24908,58000.00
5801,24920,58010.00
5802,24932,58020.00
5803,24936,58030.00
5804,24944,58040.00
5805,24952,58050.00
5806,24956,58060.00
5807,24964,58070.00
5808,24972,58080.00
5809,24984,58090.00
5810,24992,58100.00
5811,25000,58110.00
5812,25008,58120.00
5813,25016,58130.00
5814,25028,58140.00
5815,25032,58150.00
5816,25044,58160.00
5817,25052,58170.00
5818,25060,58180.00
5819,25068,58190.00
5820,25076,58200.00
5821,25060,58210.00
5822,25020,58220.00
5823,24968,58230.00
5824,24908,58240.00
5825,24856,58250.00
5826,24808,58260.00
5827,24784,58270.00
5828,24764,58280.00
5829,24756,58290.00
5830,24752,58300.00
5831,24744,58310.00
5832,24748,58320.00
5833,24752,58330.00
5834,24756,58340.00
5835,24756,58350.00
5836,24756,58360.00
5837,24752,58370.00
5838,24744,58380.00
5839,24740,58390.00
5840,24740,58400.00
5841,24736,58410.00
5842,24740,58420.00
5843,24748,58430.00
5844,24760,58440.00
5845,24768,58450.00
5846,24780,58460.00
5847,24796,58470.00
5848,24808,58480.00
5849,24820,58490.00
5850,24832,58500.00
5851,24840,58510.00
5852,24856,58520.00
5853,24860,58530.00
5854,24872,58540.00
5855,24880,58550.00
5856,24888,58560.00
5857,24904,58570.00
5858,24908,58580.00
5859,24924,58590.00
5860,24932,58600.00
5861,24944,58610.00
5862,24952,58620.00
5863,24960,58630.00
5864,24976,58640.00
5865,24988,58650.00
5866,24992,58660.00
5867,24988,58670.00
5868,24952,58680.00
5869,24896,58690.00
5870,24824,58700.00
5871,24748,58710.00
5872,24692,58720.00
5873,24648,58730.00
5874,24624,58740.00
5875,24612,58750.00
5876,24604,58760.00
5877,24600,58770.00
5878,24596,58780.00
5879,24600,58790.00
5880,24608,58800.00
5881,24616,58810.00
5882,24620,58820.00
5883,24620,58830.00
5884,24616,58840.00
5885,24616,58850.00
5886,24612,58860.00
5887,24612,58870.00
5888,24616,58880.00
5889,24628,58890.00
5890,24636,58900.00
5891,24652,58910.00
5892,24664,58920.00
5893,24684,58930.00
5894,24700,58940.00
5895,24712,58950.00
5896,24728,58960.00
5897,24740,58970.00
5898,24752,58980.00
5899,24760,58990.00
5900,24772,59000.00
5901,24780,59010.00
5902,24792,59020.00
5903,24804,59030.00
5904,24816,59040.00
5905,24828,59050.00
5906,24840,59060.00
5907,24852,59070.00
5908,24864,59080.00
5909,24876,59090.00
5910,24892,59100.00
5911,24900,59110.00
5912,24912,59120.00
5913,24920,59130.00
5914,24932,59140.00
5915,24944,59150.00
5916,24952,59160.00
5917,24960,59170.00
5918,24956,59180.00
5919,24924,59190.00
5920,24860,59200.00
5921,24780,59210.00
5922,24688,59220.00
5923,24612,59230.00
5924,24556,59240.00
5925,24528,59250.00
5926,24516,59260.00
5927,24516,59270.00
5928,24512,59280.00
5929,24520,59290.00
5930,24524,59300.00
5931,24532,59310.00
5932,24544,59320.00
5933,24544,59330.00
5934,24548,59340.00
5935,24548,59350.00
5936,24540,59360.00
5937,24536,59370.00
5938,24536,59380.00
5939,24540,59390.00
5940,24544,59400.00
5941,24556,59410.00
5942,24576,59420.00
5943,24596,59430.00
5944,24612,59440.00
5945,24628,59450.00
5946,24644,59460.00
5947,24656,59470.00
5948,24668,59480.00
5949,24680,59490.00
5950,24692,59500.00
5951,24700,59510.00
5952,24708,59520.00
5953,24720,59530.00
5954,24732,59540.00
5955,24744,59550.00
5956,24756,59560.00
5957,24764,59570.00
5958,24780,59580.00
5959,24792,59590.00
5960,24800,59600.00
5961,24816,59610.00
5962,24824,59620.00
5963,24832,59630.00
5964,24848,59640.00
5965,24860,59650.00
5966,24872,59660.00
5967,24880,59670.00
5968,24888,59680.00
5969,24876,59690.00
5970,24828,59700.00
5971,24752,59710.00
5972,24664,59720.00
5973,24576,59730.00
5974,24508,59740.00
5975,24464,59750.00
5976,24444,59760.00
5977,24444,59770.00
5978,24452,59780.00
5979,24460,59790.00
5980,24476,59800.00
5981,24492,59810.00
5982,24504,59820.00
5983,24508,59830.00
5984,24516,59840.00
5985,24508,59850.00
5986,24504,59860.00
5987,24500,59870.00
5988,24496,59880.00
5989,24496,59890.00
5990,24500,59900.00
5991,24516,59910.00
5992,24536,59920.00
5993,24552,59930.00
5994,24572,59940.00
5995,24592,59950.00
5996,24608,59960.00
5997,24624,59970.00
5998,24640,59980.00
5999,24656,59990.00
