Sample_Index,IR_Value,Timestamp_ms
0,21804,0.00
1,21772,19.98
2,21812,39.96
3,21876,59.93
4,21952,79.91
5,22024,99.89
6,22080,119.87
7,22128,139.85
8,22156,159.82
9,22176,179.80
10,22196,199.78
11,22204,219.76
12,22204,239.74
13,22208,259.71
14,22216,279.69
15,22216,299.67
16,22212,319.65
17,22212,339.63
18,22204,359.60
19,22196,379.58
20,22208,399.56
21,22200,419.54
22,22068,439.52
23,21912,459.49
24,21844,479.47
25,21828,499.45
26,21804,519.43
27,21792,539.40
28,21792,559.38
29,21792,579.36
30,21800,599.34
31,21804,619.32
32,21784,639.29
33,21660,659.27
34,21432,679.25
35,21252,699.23
36,21248,719.21
37,21408,739.18
38,21468,759.16
39,21496,779.14
40,21536,799.12
41,21568,819.10
42,21604,839.07
43,21664,859.05
44,21716,879.03
45,21756,899.01
46,21820,918.99
47,21876,938.96
48,21904,958.94
49,21912,978.92
50,21940,998.90
51,21984,1018.88
52,22048,1038.85
53,22096,1058.83
54,22084,1078.81
55,22056,1098.79
56,22052,1118.77
57,22060,1138.74
58,22060,1158.72
59,22064,1178.70
60,22056,1198.68
61,22052,1218.66
62,22044,1238.63
63,22056,1258.61
64,22068,1278.59
65,22072,1298.57
66,22068,1318.55
67,22060,1338.52
68,22060,1358.50
69,22056,1378.48
70,22064,1398.46
71,22064,1418.43
72,22076,1438.41
73,22092,1458.39
74,22104,1478.37
75,22108,1498.35
76,22096,1518.32
77,22076,1538.30
78,22052,1558.28
79,22028,1578.26
80,22016,1598.24
81,22024,1618.21
82,22040,1638.19
83,22056,1658.17
84,22044,1678.15
85,22036,1698.13
86,22020,1718.10
87,22020,1738.08
88,22036,1758.06
89,22044,1778.04
90,22048,1798.02
91,22048,1817.99
92,22024,1837.97
93,21984,1857.95
94,21992,1877.93
95,21996,1897.91
96,22004,1917.88
97,22020,1937.86
98,22016,1957.84
99,22016,1977.82
100,22020,1997.80
101,22012,2017.77
102,21972,2037.75
103,21940,2057.73
104,21904,2077.71
105,21880,2097.69
106,21840,2117.66
107,21808,2137.64
108,21796,2157.62
109,21796,2177.60
110,21776,2197.58
111,21748,2217.55
112,21732,2237.53
113,21724,2257.51
114,21736,2277.49
115,21764,2297.46
116,21796,2317.44
117,21792,2337.42
118,21788,2357.40
119,21788,2377.38
120,21784,2397.35
121,21772,2417.33
122,21776,2437.31
123,21792,2457.29
124,21800,2477.27
125,21820,2497.24
126,21836,2517.22
127,21860,2537.20
128,21876,2557.18
129,21896,2577.16
130,21904,2597.13
131,21916,2617.11
132,21928,2637.09
133,21932,2657.07
134,21936,2677.05
135,21944,2697.02
136,21948,2717.00
137,21960,2736.98
138,21972,2756.96
139,21976,2776.94
140,21988,2796.91
141,22008,2816.89
142,22028,2836.87
143,22060,2856.85
144,22076,2876.83
145,22100,2896.80
146,22116,2916.78
147,22132,2936.76
148,22136,2956.74
149,22140,2976.72
150,22152,2996.69
151,22156,3016.67
152,22164,3036.65
153,22180,3056.63
154,22184,3076.61
155,22188,3096.58
156,22192,3116.56
157,22188,3136.54
158,22204,3156.52
159,22216,3176.50
160,22224,3196.47
161,22244,3216.45
162,22264,3236.43
163,22284,3256.41
164,22308,3276.38
165,22324,3296.36
166,22340,3316.34
167,22360,3336.32
168,22380,3356.30
169,22404,3376.27
170,22428,3396.25
171,22444,3416.23
172,22464,3436.21
173,22484,3456.19
174,22496,3476.16
175,22512,3496.14
176,22524,3516.12
177,22540,3536.10
178,22544,3556.08
179,22548,3576.05
180,22552,3596.03
181,22552,3616.01
182,22552,3635.99
183,22556,3655.97
184,22556,3675.94
185,22564,3695.92
186,22560,3715.90
187,22564,3735.88
188,22568,3755.86
189,22572,3775.83
190,22576,3795.81
191,22580,3815.79
192,22568,3835.77
193,22552,3855.75
194,22544,3875.72
195,22524,3895.70
196,22508,3915.68
197,22504,3935.66
198,22496,3955.64
199,22492,3975.61
200,22488,3995.59
201,22488,4015.57
202,22492,4035.55
203,22492,4055.53
204,22492,4075.50
205,22504,4095.48
206,22504,4115.46
207,22504,4135.44
208,22504,4155.41
209,22500,4175.39
210,22500,4195.37
211,22500,4215.35
212,22500,4235.33
213,22500,4255.30
214,22504,4275.28
215,22504,4295.26
216,22508,4315.24
217,22512,4335.22
218,22516,4355.19
219,22516,4375.17
220,22524,4395.15
221,22524,4415.13
222,22524,4435.11
223,22528,4455.08
224,22528,4475.06
225,22532,4495.04
226,22536,4515.02
227,22540,4535.00
228,22544,4554.97
229,22552,4574.95
230,22548,4594.93
231,22544,4614.91
232,22532,4634.89
233,22516,4654.86
234,22496,4674.84
235,22488,4694.82
236,22480,4714.80
237,22472,4734.78
238,22476,4754.75
239,22476,4774.73
240,22472,4794.71
241,22480,4814.69
242,22484,4834.67
243,22488,4854.64
244,22488,4874.62
245,22488,4894.60
246,22492,4914.58
247,22492,4934.56
248,22496,4954.53
249,22496,4974.51
250,22496,4994.49
251,22496,5014.47
252,22500,5034.44
253,22504,5054.42
254,22504,5074.40
255,22508,5094.38
256,22512,5114.36
257,22520,5134.33
258,22524,5154.31
259,22524,5174.29
260,22528,5194.27
261,22532,5214.25
262,22536,5234.22
263,22540,5254.20
264,22540,5274.18
265,22544,5294.16
266,22540,5314.14
267,22544,5334.11
268,22540,5354.09
269,22544,5374.07
270,22552,5394.05
271,22556,5414.03
272,22548,5434.00
273,22540,5453.98
274,22520,5473.96
275,22504,5493.94
276,22488,5513.92
277,22476,5533.89
278,22468,5553.87
279,22460,5573.85
280,22460,5593.83
281,22460,5613.81
282,22468,5633.78
283,22472,5653.76
284,22472,5673.74
285,22472,5693.72
286,22472,5713.70
287,22472,5733.67
288,22472,5753.65
289,22472,5773.63
290,22468,5793.61
291,22468,5813.59
292,22476,5833.56
293,22476,5853.54
294,22480,5873.52
295,22484,5893.50
296,22484,5913.48
297,22492,5933.45
298,22492,5953.43
299,22496,5973.41
300,22500,5993.39
301,22512,6013.36
302,22516,6033.34
303,22520,6053.32
304,22520,6073.30
305,22524,6093.28
306,22524,6113.25
307,22524,6133.23
308,22528,6153.21
309,22532,6173.19
310,22536,6193.17
311,22540,6213.14
312,22544,6233.12
313,22548,6253.10
314,22544,6273.08
315,22532,6293.06
316,22516,6313.03
317,22500,6333.01
318,22484,6352.99
319,22472,6372.97
320,22464,6392.95
321,22460,6412.92
322,22460,6432.90
323,22468,6452.88
324,22476,6472.86
325,22484,6492.84
326,22488,6512.81
327,22484,6532.79
328,22480,6552.77
329,22472,6572.75
330,22472,6592.73
331,22464,6612.70
332,22456,6632.68
333,22456,6652.66
334,22452,6672.64
335,22452,6692.62
336,22456,6712.59
337,22460,6732.57
338,22468,6752.55
339,22472,6772.53
340,22480,6792.51
341,22488,6812.48
342,22500,6832.46
343,22512,6852.44
344,22524,6872.42
345,22544,6892.39
346,22544,6912.37
347,22552,6932.35
348,22564,6952.33
349,22568,6972.31
350,22568,6992.28
351,22576,7012.26
352,22576,7032.24
353,22572,7052.22
354,22556,7072.20
355,22536,7092.17
356,22516,7112.15
357,22492,7132.13
358,22472,7152.11
359,22452,7172.09
360,22432,7192.06
361,22424,7212.04
362,22416,7232.02
363,22412,7252.00
364,22408,7271.98
365,22400,7291.95
366,22392,7311.93
367,22384,7331.91
368,22376,7351.89
369,22364,7371.87
370,22344,7391.84
371,22324,7411.82
372,22312,7431.80
373,22300,7451.78
374,22284,7471.76
375,22268,7491.73
376,22260,7511.71
377,22244,7531.69
378,22228,7551.67
379,22212,7571.65
380,22192,7591.62
381,22176,7611.60
382,22156,7631.58
383,22136,7651.56
384,22124,7671.54
385,22108,7691.51
386,22100,7711.49
387,22092,7731.47
388,22076,7751.45
389,22068,7771.43
390,22052,7791.40
391,22036,7811.38
392,22012,7831.36
393,21972,7851.34
394,21936,7871.31
395,21896,7891.29
396,21872,7911.27
397,21844,7931.25
398,21832,7951.23
399,21820,7971.20
400,21808,7991.18
401,21800,8011.16
402,21792,8031.14
403,21792,8051.12
404,21788,8071.09
405,21784,8091.07
406,21780,8111.05
407,21776,8131.03
408,21776,8151.01
409,21780,8170.98
410,21788,8190.96
411,21796,8210.94
412,21804,8230.92
413,21820,8250.90
414,21840,8270.87
415,21872,8290.85
416,21928,8310.83
417,21992,8330.81
418,22044,8350.79
419,22080,8370.76
420,22108,8390.74
421,22132,8410.72
422,22152,8430.70
423,22168,8450.68
424,22196,8470.65
425,22232,8490.63
426,22272,8510.61
427,22308,8530.59
428,22336,8550.57
429,22348,8570.54
430,22360,8590.52
431,22352,8610.50
432,22348,8630.48
433,22344,8650.46
434,22352,8670.43
435,22360,8690.41
436,22372,8710.39
437,22384,8730.37
438,22400,8750.34
439,22416,8770.32
440,22440,8790.30
441,22464,8810.28
442,22488,8830.26
443,22504,8850.23
444,22512,8870.21
445,22524,8890.19
446,22536,8910.17
447,22536,8930.15
448,22544,8950.12
449,22544,8970.10
450,22548,8990.08
451,22556,9010.06
452,22560,9030.04
453,22568,9050.01
454,22560,9069.99
455,22556,9089.97
456,22560,9109.95
457,22568,9129.93
458,22568,9149.90
459,22576,9169.88
460,22588,9189.86
461,22592,9209.84
462,22596,9229.82
463,22600,9249.79
464,22604,9269.77
465,22612,9289.75
466,22620,9309.73
467,22628,9329.71
468,22632,9349.68
469,22636,9369.66
470,22640,9389.64
471,22632,9409.62
472,22620,9429.60
473,22596,9449.57
474,22560,9469.55
475,22524,9489.53
476,22500,9509.51
477,22476,9529.49
478,22460,9549.46
479,22448,9569.44
480,22432,9589.42
481,22428,9609.40
482,22420,9629.37
483,22416,9649.35
484,22412,9669.33
485,22416,9689.31
486,22412,9709.29
487,22408,9729.26
488,22400,9749.24
489,22392,9769.22
490,22392,9789.20
491,22392,9809.18
492,22396,9829.15
493,22400,9849.13
494,22412,9869.11
495,22416,9889.09
496,22428,9909.07
497,22440,9929.04
498,22452,9949.02
499,22460,9969.00
500,22472,9988.98
501,22480,10008.96
502,22492,10028.93
503,22512,10048.91
504,22532,10068.89
505,22544,10088.87
506,22560,10108.85
507,22572,10128.82
508,22584,10148.80
509,22600,10168.78
510,22612,10188.76
511,22624,10208.74
512,22640,10228.71
513,22640,10248.69
514,22636,10268.67
515,22624,10288.65
516,22608,10308.63
517,22600,10328.60
518,22588,10348.58
519,22584,10368.56
520,22584,10388.54
521,22584,10408.52
522,22592,10428.49
523,22596,10448.47
524,22604,10468.45
525,22616,10488.43
526,22624,10508.41
527,22636,10528.38
528,22636,10548.36
529,22644,10568.34
530,22652,10588.32
531,22652,10608.29
532,22660,10628.27
533,22668,10648.25
534,22676,10668.23
535,22684,10688.21
536,22696,10708.18
537,22708,10728.16
538,22720,10748.14
539,22732,10768.12
540,22744,10788.10
541,22752,10808.07
542,22764,10828.05
543,22772,10848.03
544,22784,10868.01
545,22796,10887.99
546,22808,10907.96
547,22820,10927.94
548,22828,10947.92
549,22840,10967.90
550,22848,10987.88
551,22856,11007.85
552,22856,11027.83
553,22848,11047.81
554,22836,11067.79
555,22816,11087.77
556,22808,11107.74
557,22796,11127.72
558,22796,11147.70
559,22792,11167.68
560,22792,11187.66
561,22792,11207.63
562,22796,11227.61
563,22804,11247.59
564,22808,11267.57
565,22808,11287.55
566,22812,11307.52
567,22816,11327.50
568,22816,11347.48
569,22812,11367.46
570,22812,11387.44
571,22820,11407.41
572,22820,11427.39
573,22828,11447.37
574,22832,11467.35
575,22836,11487.32
576,22836,11507.30
577,22840,11527.28
578,22848,11547.26
579,22852,11567.24
580,22856,11587.21
581,22864,11607.19
582,22872,11627.17
583,22876,11647.15
584,22880,11667.13
585,22888,11687.10
586,22900,11707.08
587,22908,11727.06
588,22916,11747.04
589,22924,11767.02
590,22928,11786.99
591,22928,11806.97
592,22920,11826.95
593,22908,11846.93
594,22892,11866.91
595,22880,11886.88
596,22872,11906.86
597,22868,11926.84
598,22868,11946.82
599,22868,11966.80
600,22868,11986.77
601,22868,12006.75
602,22876,12026.73
603,22880,12046.71
604,22884,12066.69
605,22884,12086.66
606,22884,12106.64
607,22884,12126.62
608,22884,12146.60
609,22884,12166.58
610,22884,12186.55
611,22888,12206.53
612,22888,12226.51
613,22888,12246.49
614,22896,12266.47
615,22900,12286.44
616,22904,12306.42
617,22912,12326.40
618,22912,12346.38
619,22920,12366.35
620,22924,12386.33
621,22928,12406.31
622,22936,12426.29
623,22940,12446.27
624,22944,12466.24
625,22948,12486.22
626,22956,12506.20
627,22960,12526.18
628,22964,12546.16
629,22968,12566.13
630,22960,12586.11
631,22948,12606.09
632,22928,12626.07
633,22916,12646.05
634,22896,12666.02
635,22884,12686.00
636,22876,12705.98
637,22876,12725.96
638,22876,12745.94
639,22872,12765.91
640,22876,12785.89
641,22880,12805.87
642,22876,12825.85
643,22872,12845.83
644,22872,12865.80
645,22876,12885.78
646,22872,12905.76
647,22872,12925.74
648,22872,12945.72
649,22876,12965.69
650,22876,12985.67
651,22884,13005.65
652,22888,13025.63
653,22896,13045.61
654,22900,13065.58
655,22908,13085.56
656,22916,13105.54
657,22920,13125.52
658,22928,13145.50
659,22936,13165.47
660,22944,13185.45
661,22956,13205.43
662,22964,13225.41
663,22972,13245.39
664,22980,13265.36
665,22988,13285.34
666,22996,13305.32
667,23008,13325.30
668,23016,13345.27
669,23024,13365.25
670,23028,13385.23
671,23028,13405.21
672,23020,13425.19
673,23008,13445.16
674,22996,13465.14
675,22984,13485.12
676,22980,13505.10
677,22976,13525.08
678,22972,13545.05
679,22976,13565.03
680,22976,13585.01
681,22984,13604.99
682,22984,13624.97
683,22992,13644.94
684,22996,13664.92
685,23000,13684.90
686,22996,13704.88
687,23000,13724.86
688,23000,13744.83
689,23004,13764.81
690,23004,13784.79
691,23008,13804.77
692,23012,13824.75
693,23016,13844.72
694,23024,13864.70
695,23036,13884.68
696,23036,13904.66
697,23048,13924.64
698,23052,13944.61
699,23056,13964.59
700,23060,13984.57
701,23064,14004.55
702,23072,14024.53
703,23076,14044.50
704,23080,14064.48
705,23080,14084.46
706,23084,14104.44
707,23088,14124.42
708,23088,14144.39
709,23096,14164.37
710,23100,14184.35
711,23092,14204.33
712,23080,14224.30
713,23060,14244.28
714,23040,14264.26
715,23020,14284.24
716,23008,14304.22
717,23004,14324.19
718,23000,14344.17
719,23000,14364.15
720,23000,14384.13
721,23000,14404.11
722,23000,14424.08
723,23004,14444.06
724,23004,14464.04
725,23004,14484.02
726,23000,14504.00
727,22996,14523.97
728,22992,14543.95
729,22992,14563.93
730,22992,14583.91
731,22996,14603.89
732,23000,14623.86
733,23004,14643.84
734,23008,14663.82
735,23008,14683.80
736,23012,14703.78
737,23020,14723.75
738,23024,14743.73
739,23028,14763.71
740,23032,14783.69
741,23032,14803.67
742,23040,14823.64
743,23044,14843.62
744,23052,14863.60
745,23056,14883.58
746,23068,14903.56
747,23072,14923.53
748,23072,14943.51
749,23068,14963.49
750,23052,14983.47
751,23032,15003.45
752,23000,15023.42
753,22980,15043.40
754,22960,15063.38
755,22944,15083.36
756,22932,15103.33
757,22920,15123.31
758,22916,15143.29
759,22908,15163.27
760,22900,15183.25
761,22900,15203.22
762,22896,15223.20
763,22888,15243.18
764,22884,15263.16
765,22880,15283.14
766,22876,15303.11
767,22868,15323.09
768,22868,15343.07
769,22868,15363.05
770,22868,15383.03
771,22872,15403.00
772,22868,15422.98
773,22876,15442.96
774,22880,15462.94
775,22888,15482.92
776,22896,15502.89
777,22900,15522.87
778,22904,15542.85
779,22912,15562.83
780,22920,15582.81
781,22924,15602.78
782,22932,15622.76
783,22932,15642.74
784,22940,15662.72
785,22944,15682.70
786,22952,15702.67
787,22956,15722.65
788,22956,15742.63
789,22948,15762.61
790,22928,15782.59
791,22904,15802.56
792,22876,15822.54
793,22852,15842.52
794,22832,15862.50
795,22816,15882.48
796,22808,15902.45
797,22804,15922.43
798,22796,15942.41
799,22796,15962.39
800,22796,15982.37
801,22800,16002.34
802,22800,16022.32
803,22796,16042.30
804,22792,16062.28
805,22784,16082.25
806,22780,16102.23
807,22776,16122.21
808,22772,16142.19
809,22776,16162.17
810,22772,16182.14
811,22776,16202.12
812,22784,16222.10
813,22788,16242.08
814,22792,16262.06
815,22800,16282.03
816,22804,16302.01
817,22808,16321.99
818,22816,16341.97
819,22820,16361.95
820,22828,16381.92
821,22832,16401.90
822,22840,16421.88
823,22844,16441.86
824,22852,16461.84
825,22856,16481.81
826,22860,16501.79
827,22868,16521.77
828,22868,16541.75
829,22856,16561.73
830,22836,16581.70
831,22804,16601.68
832,22772,16621.66
833,22740,16641.64
834,22720,16661.62
835,22708,16681.59
836,22696,16701.57
837,22688,16721.55
838,22680,16741.53
839,22676,16761.51
840,22676,16781.48
841,22672,16801.46
842,22668,16821.44
843,22664,16841.42
844,22656,16861.40
845,22652,16881.37
846,22648,16901.35
847,22644,16921.33
848,22640,16941.31
849,22640,16961.28
850,22640,16981.26
851,22640,17001.24
852,22640,17021.22
853,22644,17041.20
854,22652,17061.17
855,22656,17081.15
856,22664,17101.13
857,22672,17121.11
858,22680,17141.09
859,22688,17161.06
860,22692,17181.04
861,22704,17201.02
862,22708,17221.00
863,22712,17240.98
864,22716,17260.95
865,22724,17280.93
866,22732,17300.91
867,22740,17320.89
868,22748,17340.87
869,22756,17360.84
870,22764,17380.82
871,22764,17400.80
872,22752,17420.78
873,22724,17440.76
874,22688,17460.73
875,22644,17480.71
876,22612,17500.69
877,22588,17520.67
878,22576,17540.65
879,22564,17560.62
880,22560,17580.60
881,22560,17600.58
882,22556,17620.56
883,22552,17640.54
884,22556,17660.51
885,22552,17680.49
886,22552,17700.47
887,22544,17720.45
888,22536,17740.43
889,22532,17760.40
890,22524,17780.38
891,22520,17800.36
892,22520,17820.34
893,22524,17840.31
894,22528,17860.29
895,22536,17880.27
896,22540,17900.25
897,22540,17920.23
898,22548,17940.20
899,22552,17960.18
900,22560,17980.16
901,22568,18000.14
902,22576,18020.12
903,22584,18040.09
904,22592,18060.07
905,22600,18080.05
906,22608,18100.03
907,22620,18120.01
908,22624,18139.98
909,22632,18159.96
910,22640,18179.94
911,22648,18199.92
912,22652,18219.90
913,22668,18239.87
914,22676,18259.85
915,22680,18279.83
916,22664,18299.81
917,22632,18319.79
918,22592,18339.76
919,22548,18359.74
920,22516,18379.72
921,22492,18399.70
922,22472,18419.68
923,22464,18439.65
924,22464,18459.63
925,22460,18479.61
926,22464,18499.59
927,22468,18519.57
928,22472,18539.54
929,22476,18559.52
930,22476,18579.50
931,22468,18599.48
932,22464,18619.46
933,22460,18639.43
934,22448,18659.41
935,22448,18679.39
936,22448,18699.37
937,22448,18719.35
938,22456,18739.32
939,22460,18759.30
940,22464,18779.28
941,22472,18799.26
942,22484,18819.23
943,22488,18839.21
944,22492,18859.19
945,22504,18879.17
946,22508,18899.15
947,22516,18919.12
948,22524,18939.10
949,22532,18959.08
950,22540,18979.06
951,22548,18999.04
952,22556,19019.01
953,22564,19038.99
954,22572,19058.97
955,22576,19078.95
956,22584,19098.93
957,22596,19118.90
958,22604,19138.88
959,22600,19158.86
960,22584,19178.84
961,22544,19198.82
962,22500,19218.79
963,22464,19238.77
964,22428,19258.75
965,22404,19278.73
966,22392,19298.71
967,22384,19318.68
968,22380,19338.66
969,22380,19358.64
970,22388,19378.62
971,22392,19398.60
972,22396,19418.57
973,22400,19438.55
974,22400,19458.53
975,22396,19478.51
976,22388,19498.49
977,22380,19518.46
978,22380,19538.44
979,22376,19558.42
980,22376,19578.40
981,22380,19598.38
982,22384,19618.35
983,22392,19638.33
984,22404,19658.31
985,22416,19678.29
986,22424,19698.26
987,22436,19718.24
988,22440,19738.22
989,22452,19758.20
990,22456,19778.18
991,22468,19798.15
992,22476,19818.13
993,22484,19838.11
994,22488,19858.09
995,22496,19878.07
996,22508,19898.04
997,22516,19918.02
998,22524,19938.00
999,22536,19957.98
1000,22544,19977.96
1001,22532,19997.93
1002,22504,20017.91
1003,22464,20037.89
1004,22416,20057.87
1005,22380,20077.85
1006,22352,20097.82
1007,22340,20117.80
1008,22336,20137.78
1009,22336,20157.76
1010,22336,20177.74
1011,22340,20197.71
1012,22344,20217.69
1013,22348,20237.67
1014,22352,20257.65
1015,22352,20277.63
1016,22348,20297.60
1017,22348,20317.58
1018,22340,20337.56
1019,22336,20357.54
1020,22336,20377.52
1021,22336,20397.49
1022,22340,20417.47
1023,22344,20437.45
1024,22352,20457.43
1025,22360,20477.41
1026,22372,20497.38
1027,22380,20517.36
1028,22388,20537.34
1029,22400,20557.32
1030,22408,20577.30
1031,22416,20597.27
1032,22424,20617.25
1033,22432,20637.23
1034,22436,20657.21
1035,22444,20677.18
1036,22452,20697.16
1037,22460,20717.14
1038,22468,20737.12
1039,22480,20757.10
1040,22492,20777.07
1041,22500,20797.05
1042,22508,20817.03
1043,22492,20837.01
1044,22460,20856.99
1045,22412,20876.96
1046,22364,20896.94
1047,22320,20916.92
1048,22292,20936.90
1049,22276,20956.88
1050,22264,20976.85
1051,22260,20996.83
1052,22256,21016.81
1053,22256,21036.79
1054,22260,21056.77
1055,22268,21076.74
1056,22272,21096.72
1057,22272,21116.70
1058,22272,21136.68
1059,22268,21156.66
1060,22264,21176.63
1061,22260,21196.61
1062,22256,21216.59
1063,22260,21236.57
1064,22268,21256.55
1065,22272,21276.52
1066,22280,21296.50
1067,22292,21316.48
1068,22300,21336.46
1069,22312,21356.44
1070,22320,21376.41
1071,22328,21396.39
1072,22340,21416.37
1073,22352,21436.35
1074,22360,21456.33
1075,22368,21476.30
1076,22376,21496.28
1077,22384,21516.26
1078,22396,21536.24
1079,22404,21556.21
1080,22412,21576.19
1081,22428,21596.17
1082,22436,21616.15
1083,22448,21636.13
1084,22460,21656.10
1085,22468,21676.08
1086,22468,21696.06
1087,22452,21716.04
1088,22416,21736.02
1089,22368,21755.99
1090,22324,21775.97
1091,22292,21795.95
1092,22272,21815.93
1093,22260,21835.91
1094,22256,21855.88
1095,22256,21875.86
1096,22256,21895.84
1097,22260,21915.82
1098,22264,21935.80
1099,22268,21955.77
1100,22268,21975.75
1101,22272,21995.73
1102,22272,22015.71
1103,22268,22035.69
1104,22264,22055.66
1105,22264,22075.64
1106,22264,22095.62
1107,22268,22115.60
1108,22276,22135.58
1109,22284,22155.55
1110,22292,22175.53
1111,22300,22195.51
1112,22308,22215.49
1113,22316,22235.47
1114,22324,22255.44
1115,22336,22275.42
1116,22344,22295.40
1117,22352,22315.38
1118,22364,22335.36
1119,22372,22355.33
1120,22376,22375.31
1121,22380,22395.29
1122,22388,22415.27
1123,22392,22435.24
1124,22396,22455.22
1125,22404,22475.20
1126,22408,22495.18
1127,22416,22515.16
1128,22424,22535.13
1129,22424,22555.11
1130,22420,22575.09
1131,22400,22595.07
1132,22364,22615.05
1133,22320,22635.02
1134,22276,22655.00
1135,22244,22674.98
1136,22220,22694.96
1137,22204,22714.94
1138,22204,22734.91
1139,22200,22754.89
1140,22196,22774.87
1141,22200,22794.85
1142,22204,22814.83
1143,22216,22834.80
1144,22224,22854.78
1145,22224,22874.76
1146,22220,22894.74
1147,22216,22914.72
1148,22216,22934.69
1149,22212,22954.67
1150,22208,22974.65
1151,22208,22994.63
1152,22216,23014.61
1153,22216,23034.58
1154,22224,23054.56
1155,22232,23074.54
1156,22232,23094.52
1157,22240,23114.50
1158,22244,23134.47
1159,22252,23154.45
1160,22256,23174.43
1161,22264,23194.41
1162,22272,23214.39
1163,22276,23234.36
1164,22276,23254.34
1165,22284,23274.32
1166,22288,23294.30
1167,22288,23314.28
1168,22296,23334.25
1169,22300,23354.23
1170,22308,23374.21
1171,22324,23394.19
1172,22332,23414.16
1173,22328,23434.14
1174,22316,23454.12
1175,22284,23474.10
1176,22252,23494.08
1177,22216,23514.05
1178,22188,23534.03
1179,22172,23554.01
1180,22164,23573.99
1181,22160,23593.97
1182,22164,23613.94
1183,22172,23633.92
1184,22188,23653.90
1185,22196,23673.88
1186,22204,23693.86
1187,22204,23713.83
1188,22208,23733.81
1189,22200,23753.79
1190,22196,23773.77
1191,22192,23793.75
1192,22192,23813.72
1193,22192,23833.70
1194,22200,23853.68
1195,22204,23873.66
1196,22212,23893.64
1197,22224,23913.61
1198,22228,23933.59
1199,22240,23953.57
1200,22248,23973.55
1201,22252,23993.53
1202,22260,24013.50
1203,22268,24033.48
1204,22272,24053.46
1205,22280,24073.44
1206,22288,24093.42
1207,22296,24113.39
1208,22308,24133.37
1209,22312,24153.35
1210,22320,24173.33
1211,22320,24193.31
1212,22308,24213.28
1213,22280,24233.26
1214,22244,24253.24
1215,22212,24273.22
1216,22184,24293.19
1217,22164,24313.17
1218,22160,24333.15
1219,22156,24353.13
1220,22160,24373.11
1221,22168,24393.08
1222,22176,24413.06
1223,22184,24433.04
1224,22192,24453.02
1225,22196,24473.00
1226,22200,24492.97
1227,22200,24512.95
1228,22200,24532.93
1229,22196,24552.91
1230,22200,24572.89
1231,22200,24592.86
1232,22204,24612.84
1233,22212,24632.82
1234,22220,24652.80
1235,22224,24672.78
1236,22236,24692.75
1237,22252,24712.73
1238,22256,24732.71
1239,22272,24752.69
1240,22284,24772.67
1241,22292,24792.64
1242,22300,24812.62
1243,22308,24832.60
1244,22316,24852.58
1245,22320,24872.56
1246,22328,24892.53
1247,22336,24912.51
1248,22336,24932.49
1249,22336,24952.47
1250,22316,24972.45
1251,22284,24992.42
1252,22244,25012.40
1253,22200,25032.38
1254,22168,25052.36
1255,22152,25072.34
1256,22140,25092.31
1257,22132,25112.29
1258,22136,25132.27
1259,22132,25152.25
1260,22136,25172.22
1261,22140,25192.20
1262,22148,25212.18
1263,22156,25232.16
1264,22152,25252.14
1265,22152,25272.11
1266,22148,25292.09
1267,22148,25312.07
1268,22148,25332.05
1269,22148,25352.03
1270,22152,25372.00
1271,22160,25391.98
1272,22168,25411.96
1273,22184,25431.94
1274,22196,25451.92
1275,22204,25471.89
1276,22216,25491.87
1277,22228,25511.85
1278,22240,25531.83
1279,22248,25551.81
1280,22260,25571.78
1281,22268,25591.76
1282,22280,25611.74
1283,22292,25631.72
1284,22300,25651.70
1285,22304,25671.67
1286,22316,25691.65
1287,22324,25711.63
1288,22336,25731.61
1289,22340,25751.59
1290,22348,25771.56
1291,22340,25791.54
1292,22312,25811.52
1293,22268,25831.50
1294,22220,25851.48
1295,22176,25871.45
1296,22140,25891.43
1297,22124,25911.41
1298,22116,25931.39
1299,22108,25951.37
1300,22104,25971.34
1301,22104,25991.32
1302,22096,26011.30
1303,22100,26031.28
1304,22104,26051.26
1305,22108,26071.23
1306,22112,26091.21
1307,22116,26111.19
1308,22112,26131.17
1309,22112,26151.14
1310,22112,26171.12
1311,22116,26191.10
1312,22124,26211.08
1313,22128,26231.06
1314,22136,26251.03
1315,22152,26271.01
1316,22160,26290.99
1317,22176,26310.97
1318,22188,26330.95
1319,22204,26350.92
1320,22212,26370.90
1321,22228,26390.88
1322,22236,26410.86
1323,22248,26430.84
1324,22256,26450.81
1325,22264,26470.79
1326,22276,26490.77
1327,22284,26510.75
1328,22296,26530.73
1329,22304,26550.70
1330,22320,26570.68
1331,22328,26590.66
1332,22340,26610.64
1333,22352,26630.62
1334,22360,26650.59
1335,22372,26670.57
1336,22380,26690.55
1337,22384,26710.53
1338,22396,26730.51
1339,22404,26750.48
1340,22408,26770.46
1341,22396,26790.44
1342,22360,26810.42
1343,22316,26830.40
1344,22260,26850.37
1345,22212,26870.35
1346,22180,26890.33
1347,22156,26910.31
1348,22144,26930.29
1349,22136,26950.26
1350,22136,26970.24
1351,22128,26990.22
1352,22128,27010.20
1353,22136,27030.17
1354,22140,27050.15
1355,22148,27070.13
1356,22148,27090.11
1357,22152,27110.09
1358,22148,27130.06
1359,22144,27150.04
1360,22140,27170.02
1361,22144,27190.00
1362,22148,27209.98
1363,22156,27229.95
1364,22168,27249.93
1365,22180,27269.91
1366,22188,27289.89
1367,22204,27309.87
1368,22216,27329.84
1369,22224,27349.82
1370,22236,27369.80
1371,22244,27389.78
1372,22256,27409.76
1373,22264,27429.73
1374,22272,27449.71
1375,22280,27469.69
1376,22288,27489.67
1377,22300,27509.65
1378,22308,27529.62
1379,22316,27549.60
1380,22324,27569.58
1381,22332,27589.56
1382,22340,27609.54
1383,22344,27629.51
1384,22352,27649.49
1385,22364,27669.47
1386,22376,27689.45
1387,22384,27709.43
1388,22392,27729.40
1389,22404,27749.38
1390,22416,27769.36
1391,22428,27789.34
1392,22432,27809.32
1393,22424,27829.29
1394,22388,27849.27
1395,22336,27869.25
1396,22276,27889.23
1397,22224,27909.20
1398,22180,27929.18
1399,22160,27949.16
1400,22140,27969.14
1401,22140,27989.12
1402,22136,28009.09
1403,22136,28029.07
1404,22132,28049.05
1405,22140,28069.03
1406,22144,28089.01
1407,22152,28108.98
1408,22156,28128.96
1409,22156,28148.94
1410,22152,28168.92
1411,22152,28188.90
1412,22144,28208.87
1413,22140,28228.85
1414,22136,28248.83
1415,22140,28268.81
1416,22148,28288.79
1417,22152,28308.76
1418,22160,28328.74
1419,22172,28348.72
1420,22188,28368.70
1421,22204,28388.68
1422,22216,28408.65
1423,22224,28428.63
1424,22236,28448.61
1425,22244,28468.59
1426,22248,28488.57
1427,22252,28508.54
1428,22264,28528.52
1429,22272,28548.50
1430,22272,28568.48
1431,22280,28588.46
1432,22284,28608.43
1433,22288,28628.41
1434,22300,28648.39
1435,22312,28668.37
1436,22316,28688.35
1437,22324,28708.32
1438,22332,28728.30
1439,22344,28748.28
1440,22352,28768.26
1441,22336,28788.24
1442,22308,28808.21
1443,22260,28828.19
1444,22204,28848.17
1445,22152,28868.15
1446,22116,28888.12
1447,22096,28908.10
1448,22092,28928.08
1449,22088,28948.06
1450,22088,28968.04
1451,22092,28988.01
1452,22096,29007.99
1453,22104,29027.97
1454,22112,29047.95
1455,22116,29067.93
1456,22116,29087.90
1457,22116,29107.88
1458,22108,29127.86
1459,22104,29147.84
1460,22096,29167.82
1461,22100,29187.79
1462,22096,29207.77
1463,22104,29227.75
1464,22112,29247.73
1465,22120,29267.71
1466,22132,29287.68
1467,22148,29307.66
1468,22164,29327.64
1469,22180,29347.62
1470,22192,29367.60
1471,22200,29387.57
1472,22212,29407.55
1473,22220,29427.53
1474,22228,29447.51
1475,22232,29467.49
1476,22240,29487.46
1477,22248,29507.44
1478,22256,29527.42
1479,22268,29547.40
1480,22280,29567.38
1481,22284,29587.35
1482,22292,29607.33
1483,22280,29627.31
1484,22252,29647.29
1485,22200,29667.27
1486,22144,29687.24
1487,22092,29707.22
1488,22060,29727.20
1489,22036,29747.18
1490,22032,29767.15
1491,22032,29787.13
1492,22032,29807.11
1493,22040,29827.09
1494,22044,29847.07
1495,22056,29867.04
1496,22064,29887.02
1497,22068,29907.00
1498,22072,29926.98
1499,22072,29946.96
1500,22072,29966.93
1501,22064,29986.91
1502,22064,30006.89
1503,22068,30026.87
1504,22080,30046.85
1505,22088,30066.82
1506,22100,30086.80
1507,22112,30106.78
1508,22124,30126.76
1509,22136,30146.74
1510,22148,30166.71
1511,22164,30186.69
1512,22176,30206.67
1513,22188,30226.65
1514,22196,30246.63
1515,22204,30266.60
1516,22212,30286.58
1517,22220,30306.56
1518,22228,30326.54
1519,22232,30346.52
1520,22240,30366.49
1521,22228,30386.47
1522,22200,30406.45
1523,22148,30426.43
1524,22096,30446.41
1525,22044,30466.38
1526,22012,30486.36
1527,21988,30506.34
1528,21980,30526.32
1529,21976,30546.30
1530,21976,30566.27
1531,21980,30586.25
1532,21984,30606.23
1533,21988,30626.21
1534,22000,30646.18
1535,22008,30666.16
1536,22008,30686.14
1537,22008,30706.12
1538,22004,30726.10
1539,22000,30746.07
1540,22004,30766.05
1541,22008,30786.03
1542,22016,30806.01
1543,22020,30825.99
1544,22032,30845.96
1545,22044,30865.94
1546,22060,30885.92
1547,22072,30905.90
1548,22088,30925.88
1549,22100,30945.85
1550,22116,30965.83
1551,22128,30985.81
1552,22140,31005.79
1553,22148,31025.77
1554,22160,31045.74
1555,22168,31065.72
1556,22176,31085.70
1557,22188,31105.68
1558,22200,31125.66
1559,22212,31145.63
1560,22224,31165.61
1561,22216,31185.59
1562,22188,31205.57
1563,22140,31225.55
1564,22088,31245.52
1565,22044,31265.50
1566,22008,31285.48
1567,21992,31305.46
1568,21980,31325.44
1569,21980,31345.41
1570,21980,31365.39
1571,21984,31385.37
1572,21996,31405.35
1573,22004,31425.33
1574,22016,31445.30
1575,22024,31465.28
1576,22028,31485.26
1577,22024,31505.24
1578,22028,31525.22
1579,22032,31545.19
1580,22032,31565.17
1581,22044,31585.15
1582,22052,31605.13
1583,22072,31625.10
1584,22084,31645.08
1585,22100,31665.06
1586,22116,31685.04
1587,22132,31705.02
1588,22148,31724.99
1589,22164,31744.97
1590,22180,31764.95
1591,22196,31784.93
1592,22212,31804.91
1593,22224,31824.88
1594,22236,31844.86
1595,22248,31864.84
1596,22264,31884.82
1597,22280,31904.80
1598,22296,31924.77
1599,22312,31944.75
1600,22324,31964.73
1601,22320,31984.71
1602,22304,32004.69
1603,22272,32024.66
1604,22236,32044.64
1605,22204,32064.62
1606,22188,32084.60
1607,22184,32104.58
1608,22184,32124.55
1609,22184,32144.53
1610,22192,32164.51
1611,22200,32184.49
1612,22212,32204.47
1613,22220,32224.44
1614,22232,32244.42
1615,22240,32264.40
1616,22244,32284.38
1617,22248,32304.36
1618,22252,32324.33
1619,22252,32344.31
1620,22256,32364.29
1621,22264,32384.27
1622,22268,32404.25
1623,22284,32424.22
1624,22296,32444.20
1625,22312,32464.18
1626,22324,32484.16
1627,22336,32504.13
1628,22352,32524.11
1629,22364,32544.09
1630,22376,32564.07
1631,22392,32584.05
1632,22404,32604.02
1633,22420,32624.00
1634,22432,32643.98
1635,22448,32663.96
1636,22460,32683.94
1637,22472,32703.91
1638,22488,32723.89
1639,22492,32743.87
1640,22488,32763.85
1641,22472,32783.83
1642,22444,32803.80
1643,22420,32823.78
1644,22408,32843.76
1645,22400,32863.74
1646,22396,32883.72
1647,22400,32903.69
1648,22404,32923.67
1649,22412,32943.65
1650,22420,32963.63
1651,22428,32983.61
1652,22436,33003.58
1653,22444,33023.56
1654,22448,33043.54
1655,22452,33063.52
1656,22456,33083.50
1657,22460,33103.47
1658,22464,33123.45
1659,22472,33143.43
1660,22480,33163.41
1661,22488,33183.39
1662,22500,33203.36
1663,22508,33223.34
1664,22520,33243.32
1665,22532,33263.30
1666,22540,33283.28
1667,22548,33303.25
1668,22560,33323.23
1669,22564,33343.21
1670,22572,33363.19
1671,22588,33383.17
1672,22592,33403.14
1673,22608,33423.12
1674,22620,33443.10
1675,22632,33463.08
1676,22644,33483.05
1677,22652,33503.03
1678,22648,33523.01
1679,22636,33542.99
1680,22612,33562.97
1681,22596,33582.94
1682,22584,33602.92
1683,22576,33622.90
1684,22568,33642.88
1685,22572,33662.86
1686,22572,33682.83
1687,22576,33702.81
1688,22580,33722.79
1689,22588,33742.77
1690,22592,33762.75
1691,22596,33782.72
1692,22600,33802.70
1693,22600,33822.68
1694,22604,33842.66
1695,22608,33862.64
1696,22616,33882.61
1697,22620,33902.59
1698,22620,33922.57
1699,22632,33942.55
1700,22640,33962.53
1701,22644,33982.50
1702,22656,34002.48
1703,22664,34022.46
1704,22672,34042.44
1705,22680,34062.42
1706,22688,34082.39
1707,22692,34102.37
1708,22704,34122.35
1709,22712,34142.33
1710,22716,34162.31
1711,22728,34182.28
1712,22732,34202.26
1713,22744,34222.24
1714,22752,34242.22
1715,22760,34262.20
1716,22764,34282.17
1717,22776,34302.15
1718,22780,34322.13
1719,22792,34342.11
1720,22796,34362.08
1721,22796,34382.06
1722,22788,34402.04
1723,22768,34422.02
1724,22744,34442.00
1725,22724,34461.97
1726,22708,34481.95
1727,22696,34501.93
1728,22688,34521.91
1729,22692,34541.89
1730,22688,34561.86
1731,22692,34581.84
1732,22692,34601.82
1733,22696,34621.80
1734,22696,34641.78
1735,22696,34661.75
1736,22696,34681.73
1737,22696,34701.71
1738,22696,34721.69
1739,22696,34741.67
1740,22692,34761.64
1741,22696,34781.62
1742,22700,34801.60
1743,22704,34821.58
1744,22712,34841.56
1745,22716,34861.53
1746,22724,34881.51
1747,22732,34901.49
1748,22736,34921.47
1749,22748,34941.45
1750,22752,34961.42
1751,22756,34981.40
1752,22764,35001.38
1753,22768,35021.36
1754,22772,35041.34
1755,22780,35061.31
1756,22796,35081.29
1757,22792,35101.27
1758,22800,35121.25
1759,22808,35141.23
1760,22816,35161.20
1761,22824,35181.18
1762,22832,35201.16
1763,22840,35221.14
1764,22848,35241.11
1765,22848,35261.09
1766,22856,35281.07
1767,22864,35301.05
1768,22868,35321.03
1769,22864,35341.00
1770,22852,35360.98
1771,22836,35380.96
1772,22816,35400.94
1773,22800,35420.92
1774,22788,35440.89
1775,22784,35460.87
1776,22776,35480.85
1777,22780,35500.83
1778,22780,35520.81
1779,22780,35540.78
1780,22784,35560.76
1781,22792,35580.74
1782,22792,35600.72
1783,22792,35620.70
1784,22796,35640.67
1785,22796,35660.65
1786,22796,35680.63
1787,22796,35700.61
1788,22796,35720.59
1789,22800,35740.56
1790,22804,35760.54
1791,22808,35780.52
1792,22816,35800.50
1793,22820,35820.48
1794,22828,35840.45
1795,22836,35860.43
1796,22844,35880.41
1797,22852,35900.39
1798,22856,35920.37
1799,22864,35940.34
1800,22872,35960.32
1801,22876,35980.30
1802,22880,36000.28
1803,22884,36020.26
1804,22896,36040.23
1805,22904,36060.21
1806,22908,36080.19
1807,22920,36100.17
1808,22928,36120.15
1809,22936,36140.12
1810,22944,36160.10
1811,22948,36180.08
1812,22956,36200.06
1813,22960,36220.03
1814,22964,36240.01
1815,22972,36259.99
1816,22972,36279.97
1817,22968,36299.95
1818,22952,36319.92
1819,22932,36339.90
1820,22912,36359.88
1821,22896,36379.86
1822,22888,36399.84
1823,22880,36419.81
1824,22872,36439.79
1825,22876,36459.77
1826,22872,36479.75
1827,22876,36499.73
1828,22876,36519.70
1829,22884,36539.68
1830,22892,36559.66
1831,22888,36579.64
1832,22892,36599.62
1833,22888,36619.59
1834,22888,36639.57
1835,22888,36659.55
1836,22892,36679.53
1837,22888,36699.51
1838,22892,36719.48
1839,22896,36739.46
1840,22900,36759.44
1841,22904,36779.42
1842,22912,36799.40
1843,22916,36819.37
1844,22920,36839.35
1845,22932,36859.33
1846,22932,36879.31
1847,22940,36899.29
1848,22944,36919.26
1849,22948,36939.24
1850,22948,36959.22
1851,22952,36979.20
1852,22960,36999.18
1853,22964,37019.15
1854,22968,37039.13
1855,22972,37059.11
1856,22980,37079.09
1857,22984,37099.06
1858,22992,37119.04
1859,22992,37139.02
1860,23000,37159.00
1861,23000,37178.98
1862,23000,37198.95
1863,22996,37218.93
1864,22980,37238.91
1865,22960,37258.89
1866,22928,37278.87
1867,22908,37298.84
1868,22888,37318.82
1869,22876,37338.80
1870,22868,37358.78
1871,22860,37378.76
1872,22856,37398.73
1873,22856,37418.71
1874,22856,37438.69
1875,22856,37458.67
1876,22856,37478.65
1877,22856,37498.62
1878,22856,37518.60
1879,22856,37538.58
1880,22848,37558.56
1881,22844,37578.54
1882,22844,37598.51
1883,22848,37618.49
1884,22844,37638.47
1885,22848,37658.45
1886,22852,37678.43
1887,22856,37698.40
1888,22856,37718.38
1889,22864,37738.36
1890,22876,37758.34
1891,22880,37778.32
1892,22888,37798.29
1893,22892,37818.27
1894,22900,37838.25
1895,22904,37858.23
1896,22912,37878.21
1897,22916,37898.18
1898,22920,37918.16
1899,22924,37938.14
1900,22936,37958.12
1901,22944,37978.09
1902,22948,37998.07
1903,22956,38018.05
1904,22960,38038.03
1905,22964,38058.01
1906,22972,38077.98
1907,22980,38097.96
1908,22972,38117.94
1909,22956,38137.92
1910,22928,38157.90
1911,22892,38177.87
1912,22852,38197.85
1913,22824,38217.83
1914,22800,38237.81
1915,22784,38257.79
1916,22776,38277.76
1917,22768,38297.74
1918,22760,38317.72
1919,22760,38337.70
1920,22748,38357.68
1921,22748,38377.65
1922,22744,38397.63
1923,22744,38417.61
1924,22740,38437.59
1925,22732,38457.57
1926,22728,38477.54
1927,22724,38497.52
1928,22720,38517.50
1929,22720,38537.48
1930,22720,38557.46
1931,22724,38577.43
1932,22728,38597.41
1933,22732,38617.39
1934,22736,38637.37
1935,22740,38657.35
1936,22740,38677.32
1937,22748,38697.30
1938,22752,38717.28
1939,22760,38737.26
1940,22764,38757.24
1941,22768,38777.21
1942,22772,38797.19
1943,22776,38817.17
1944,22784,38837.15
1945,22784,38857.13
1946,22784,38877.10
1947,22792,38897.08
1948,22796,38917.06
1949,22800,38937.04
1950,22808,38957.01
1951,22804,38976.99
1952,22788,38996.97
1953,22764,39016.95
1954,22724,39036.93
1955,22680,39056.90
1956,22644,39076.88
1957,22616,39096.86
1958,22596,39116.84
1959,22580,39136.82
1960,22568,39156.79
1961,22560,39176.77
1962,22556,39196.75
1963,22552,39216.73
1964,22548,39236.71
1965,22544,39256.68
1966,22540,39276.66
1967,22532,39296.64
1968,22524,39316.62
1969,22524,39336.60
1970,22512,39356.57
1971,22508,39376.55
1972,22504,39396.53
1973,22500,39416.51
1974,22504,39436.49
1975,22512,39456.46
1976,22516,39476.44
1977,22520,39496.42
1978,22528,39516.40
1979,22536,39536.38
1980,22548,39556.35
1981,22560,39576.33
1982,22568,39596.31
1983,22576,39616.29
1984,22580,39636.27
1985,22588,39656.24
1986,22592,39676.22
1987,22600,39696.20
1988,22612,39716.18
1989,22616,39736.16
1990,22628,39756.13
1991,22636,39776.11
1992,22648,39796.09
1993,22656,39816.07
1994,22656,39836.04
1995,22640,39856.02
1996,22608,39876.00
1997,22572,39895.98
1998,22536,39915.96
1999,22504,39935.93
2000,22500,39955.91
2001,22492,39975.89
2002,22492,39995.87
2003,22496,40015.85
2004,22500,40035.82
2005,22508,40055.80
2006,22508,40075.78
2007,22512,40095.76
2008,22516,40115.74
2009,22512,40135.71
2010,22512,40155.69
2011,22508,40175.67
2012,22504,40195.65
2013,22504,40215.63
2014,22500,40235.60
2015,22508,40255.58
2016,22512,40275.56
2017,22524,40295.54
2018,22532,40315.52
2019,22536,40335.49
2020,22544,40355.47
2021,22556,40375.45
2022,22560,40395.43
2023,22564,40415.41
2024,22572,40435.38
2025,22580,40455.36
2026,22584,40475.34
2027,22596,40495.32
2028,22600,40515.30
2029,22604,40535.27
2030,22608,40555.25
2031,22616,40575.23
2032,22620,40595.21
2033,22628,40615.19
2034,22636,40635.16
2035,22636,40655.14
2036,22632,40675.12
2037,22604,40695.10
2038,22568,40715.07
2039,22532,40735.05
2040,22500,40755.03
2041,22472,40775.01
2042,22456,40794.99
2043,22452,40814.96
2044,22448,40834.94
2045,22452,40854.92
2046,22452,40874.90
2047,22456,40894.88
2048,22464,40914.85
2049,22468,40934.83
2050,22464,40954.81
2051,22464,40974.79
2052,22460,40994.77
2053,22452,41014.74
2054,22444,41034.72
2055,22444,41054.70
2056,22440,41074.68
2057,22444,41094.66
2058,22444,41114.63
2059,22452,41134.61
2060,22460,41154.59
2061,22468,41174.57
2062,22472,41194.55
2063,22480,41214.52
2064,22488,41234.50
2065,22496,41254.48
2066,22508,41274.46
2067,22512,41294.44
2068,22516,41314.41
2069,22520,41334.39
2070,22524,41354.37
2071,22532,41374.35
2072,22544,41394.33
2073,22552,41414.30
2074,22552,41434.28
2075,22540,41454.26
2076,22512,41474.24
2077,22472,41494.22
2078,22436,41514.19
2079,22408,41534.17
2080,22388,41554.15
2081,22384,41574.13
2082,22376,41594.11
2083,22376,41614.08
2084,22380,41634.06
2085,22388,41654.04
2086,22396,41674.02
2087,22400,41693.99
2088,22400,41713.97
2089,22404,41733.95
2090,22400,41753.93
2091,22396,41773.91
2092,22396,41793.88
2093,22392,41813.86
2094,22388,41833.84
2095,22388,41853.82
2096,22400,41873.80
2097,22404,41893.77
2098,22416,41913.75
2099,22424,41933.73
2100,22432,41953.71
2101,22440,41973.69
2102,22452,41993.66
2103,22460,42013.64
2104,22468,42033.62
2105,22472,42053.60
2106,22480,42073.58
2107,22488,42093.55
2108,22496,42113.53
2109,22500,42133.51
2110,22508,42153.49
2111,22516,42173.47
2112,22520,42193.44
2113,22524,42213.42
2114,22512,42233.40
2115,22488,42253.38
2116,22448,42273.36
2117,22404,42293.33
2118,22364,42313.31
2119,22340,42333.29
2120,22324,42353.27
2121,22316,42373.25
2122,22312,42393.22
2123,22312,42413.20
2124,22312,42433.18
2125,22312,42453.16
2126,22320,42473.14
2127,22328,42493.11
2128,22336,42513.09
2129,22340,42533.07
2130,22344,42553.05
2131,22344,42573.02
2132,22344,42593.00
2133,22352,42612.98
2134,22356,42632.96
2135,22364,42652.94
2136,22376,42672.91
2137,22388,42692.89
2138,22400,42712.87
2139,22416,42732.85
2140,22428,42752.83
2141,22440,42772.80
2142,22448,42792.78
2143,22464,42812.76
2144,22472,42832.74
2145,22480,42852.72
2146,22488,42872.69
2147,22496,42892.67
2148,22504,42912.65
2149,22512,42932.63
2150,22524,42952.61
2151,22540,42972.58
2152,22552,42992.56
2153,22560,43012.54
2154,22572,43032.52
2155,22584,43052.50
2156,22596,43072.47
2157,22608,43092.45
2158,22600,43112.43
2159,22576,43132.41
2160,22536,43152.39
2161,22488,43172.36
2162,22448,43192.34
2163,22420,43212.32
2164,22400,43232.30
2165,22388,43252.28
2166,22384,43272.25
2167,22380,43292.23
2168,22376,43312.21
2169,22376,43332.19
2170,22380,43352.17
2171,22380,43372.14
2172,22384,43392.12
2173,22388,43412.10
2174,22392,43432.08
2175,22392,43452.06
2176,22392,43472.03
2177,22392,43492.01
2178,22396,43511.99
2179,22404,43531.97
2180,22412,43551.94
2181,22428,43571.92
2182,22436,43591.90
2183,22448,43611.88
2184,22456,43631.86
2185,22468,43651.83
2186,22480,43671.81
2187,22492,43691.79
2188,22504,43711.77
2189,22516,43731.75
2190,22524,43751.72
2191,22532,43771.70
2192,22544,43791.68
2193,22556,43811.66
2194,22568,43831.64
2195,22580,43851.61
2196,22588,43871.59
2197,22600,43891.57
2198,22608,43911.55
2199,22620,43931.53
2200,22632,43951.50
2201,22644,43971.48
2202,22656,43991.46
2203,22668,44011.44
2204,22676,44031.42
2205,22688,44051.39
2206,22692,44071.37
2207,22708,44091.35
2208,22708,44111.33
2209,22700,44131.31
2210,22672,44151.28
2211,22632,44171.26
2212,22588,44191.24
2213,22552,44211.22
2214,22532,44231.20
2215,22516,44251.17
2216,22516,44271.15
2217,22508,44291.13
2218,22500,44311.11
2219,22496,44331.09
2220,22492,44351.06
2221,22496,44371.04
2222,22500,44391.02
2223,22500,44411.00
2224,22500,44430.97
2225,22500,44450.95
2226,22500,44470.93
2227,22496,44490.91
2228,22496,44510.89
2229,22500,44530.86
2230,22504,44550.84
2231,22508,44570.82
2232,22516,44590.80
2233,22520,44610.78
2234,22532,44630.75
2235,22540,44650.73
2236,22548,44670.71
2237,22556,44690.69
2238,22568,44710.67
2239,22572,44730.64
2240,22588,44750.62
2241,22600,44770.60
2242,22608,44790.58
2243,22616,44810.56
2244,22620,44830.53
2245,22632,44850.51
2246,22640,44870.49
2247,22644,44890.47
2248,22652,44910.45
2249,22664,44930.42
2250,22672,44950.40
2251,22684,44970.38
2252,22696,44990.36
2253,22708,45010.34
2254,22720,45030.31
2255,22728,45050.29
2256,22736,45070.27
2257,22748,45090.25
2258,22752,45110.23
2259,22764,45130.20
2260,22772,45150.18
2261,22768,45170.16
2262,22756,45190.14
2263,22724,45210.12
2264,22684,45230.09
2265,22648,45250.07
2266,22624,45270.05
2267,22600,45290.03
2268,22588,45310.00
2269,22580,45329.98
2270,22576,45349.96
2271,22568,45369.94
2272,22560,45389.92
2273,22556,45409.89
2274,22556,45429.87
2275,22560,45449.85
2276,22552,45469.83
2277,22552,45489.81
2278,22548,45509.78
2279,22548,45529.76
2280,22548,45549.74
2281,22544,45569.72
2282,22544,45589.70
2283,22548,45609.67
2284,22552,45629.65
2285,22560,45649.63
2286,22564,45669.61
2287,22572,45689.59
2288,22580,45709.56
2289,22592,45729.54
2290,22596,45749.52
2291,22604,45769.50
2292,22612,45789.48
2293,22620,45809.45
2294,22624,45829.43
2295,22636,45849.41
2296,22640,45869.39
2297,22644,45889.37
2298,22656,45909.34
2299,22668,45929.32
2300,22672,45949.30
2301,22684,45969.28
2302,22692,45989.26
2303,22696,46009.23
2304,22708,46029.21
2305,22712,46049.19
2306,22724,46069.17
2307,22732,46089.15
2308,22732,46109.12
2309,22740,46129.10
2310,22748,46149.08
2311,22752,46169.06
2312,22740,46189.04
2313,22728,46209.01
2314,22696,46228.99
2315,22660,46248.97
2316,22624,46268.95
2317,22600,46288.92
2318,22584,46308.90
2319,22580,46328.88
2320,22576,46348.86
2321,22572,46368.84
2322,22568,46388.81
2323,22568,46408.79
2324,22568,46428.77
2325,22568,46448.75
2326,22564,46468.73
2327,22560,46488.70
2328,22556,46508.68
2329,22552,46528.66
2330,22544,46548.64
2331,22540,46568.62
2332,22536,46588.59
2333,22540,46608.57
2334,22544,46628.55
2335,22552,46648.53
2336,22556,46668.51
2337,22564,46688.48
2338,22568,46708.46
2339,22576,46728.44
2340,22584,46748.42
2341,22596,46768.40
2342,22604,46788.37
2343,22612,46808.35
2344,22620,46828.33
2345,22632,46848.31
2346,22636,46868.29
2347,22644,46888.26
2348,22648,46908.24
2349,22660,46928.22
2350,22668,46948.20
2351,22676,46968.18
2352,22680,46988.15
2353,22688,47008.13
2354,22692,47028.11
2355,22700,47048.09
2356,22708,47068.07
2357,22720,47088.04
2358,22720,47108.02
2359,22708,47128.00
2360,22680,47147.98
2361,22640,47167.95
2362,22604,47187.93
2363,22576,47207.91
2364,22552,47227.89
2365,22544,47247.87
2366,22540,47267.84
2367,22540,47287.82
2368,22536,47307.80
2369,22540,47327.78
2370,22540,47347.76
2371,22544,47367.73
2372,22544,47387.71
2373,22544,47407.69
2374,22540,47427.67
2375,22540,47447.65
2376,22536,47467.62
2377,22532,47487.60
2378,22532,47507.58
2379,22536,47527.56
2380,22540,47547.54
2381,22544,47567.51
2382,22544,47587.49
2383,22556,47607.47
2384,22564,47627.45
2385,22572,47647.43
2386,22576,47667.40
2387,22584,47687.38
2388,22592,47707.36
2389,22600,47727.34
2390,22608,47747.32
2391,22620,47767.29
2392,22624,47787.27
2393,22636,47807.25
2394,22644,47827.23
2395,22652,47847.21
2396,22664,47867.18
2397,22672,47887.16
2398,22680,47907.14
2399,22688,47927.12
2400,22696,47947.10
2401,22708,47967.07
2402,22716,47987.05
2403,22728,48007.03
2404,22728,48027.01
2405,22704,48046.98
2406,22668,48066.96
2407,22624,48086.94
2408,22584,48106.92
2409,22552,48126.90
2410,22528,48146.87
2411,22520,48166.85
2412,22512,48186.83
2413,22508,48206.81
2414,22504,48226.79
2415,22504,48246.76
2416,22508,48266.74
2417,22508,48286.72
2418,22512,48306.70
2419,22512,48326.68
2420,22512,48346.65
2421,22504,48366.63
2422,22504,48386.61
2423,22500,48406.59
2424,22500,48426.57
2425,22504,48446.54
2426,22516,48466.52
2427,22532,48486.50
2428,22540,48506.48
2429,22552,48526.46
2430,22564,48546.43
2431,22576,48566.41
2432,22588,48586.39
2433,22600,48606.37
2434,22612,48626.35
2435,22620,48646.32
2436,22632,48666.30
2437,22636,48686.28
2438,22640,48706.26
2439,22648,48726.24
2440,22656,48746.21
2441,22668,48766.19
2442,22676,48786.17
2443,22688,48806.15
2444,22700,48826.13
2445,22708,48846.10
2446,22716,48866.08
2447,22724,48886.06
2448,22732,48906.04
2449,22744,48926.02
2450,22748,48945.99
2451,22736,48965.97
2452,22712,48985.95
2453,22672,49005.93
2454,22632,49025.90
2455,22596,49045.88
2456,22572,49065.86
2457,22552,49085.84
2458,22544,49105.82
2459,22540,49125.79
2460,22532,49145.77
2461,22528,49165.75
2462,22532,49185.73
2463,22528,49205.71
2464,22532,49225.68
2465,22536,49245.66
2466,22532,49265.64
2467,22532,49285.62
2468,22528,49305.60
2469,22528,49325.57
2470,22524,49345.55
2471,22520,49365.53
2472,22516,49385.51
2473,22520,49405.49
2474,22528,49425.46
2475,22536,49445.44
2476,22544,49465.42
2477,22552,49485.40
2478,22564,49505.38
2479,22572,49525.35
2480,22580,49545.33
2481,22592,49565.31
2482,22600,49585.29
2483,22608,49605.27
2484,22612,49625.24
2485,22620,49645.22
2486,22628,49665.20
2487,22640,49685.18
2488,22648,49705.16
2489,22660,49725.13
2490,22672,49745.11
2491,22680,49765.09
2492,22692,49785.07
2493,22704,49805.05
2494,22716,49825.02
2495,22724,49845.00
2496,22732,49864.98
2497,22724,49884.96
2498,22700,49904.93
2499,22660,49924.91
2500,22616,49944.89
2501,22576,49964.87
2502,22544,49984.85
2503,22520,50004.82
2504,22508,50024.80
2505,22500,50044.78
2506,22496,50064.76
2507,22492,50084.74
2508,22492,50104.71
2509,22492,50124.69
2510,22488,50144.67
2511,22488,50164.65
2512,22484,50184.63
2513,22484,50204.60
2514,22476,50224.58
2515,22476,50244.56
2516,22472,50264.54
2517,22472,50284.52
2518,22472,50304.49
2519,22480,50324.47
2520,22488,50344.45
2521,22496,50364.43
2522,22504,50384.41
2523,22516,50404.38
2524,22524,50424.36
2525,22532,50444.34
2526,22540,50464.32
2527,22548,50484.30
2528,22556,50504.27
2529,22564,50524.25
2530,22568,50544.23
2531,22572,50564.21
2532,22576,50584.19
2533,22580,50604.16
2534,22584,50624.14
2535,22596,50644.12
2536,22596,50664.10
2537,22604,50684.08
2538,22608,50704.05
2539,22616,50724.03
2540,22628,50744.01
2541,22640,50763.99
2542,22636,50783.96
2543,22612,50803.94
2544,22576,50823.92
2545,22536,50843.90
2546,22500,50863.88
2547,22476,50883.85
2548,22460,50903.83
2549,22452,50923.81
2550,22452,50943.79
2551,22448,50963.77
2552,22452,50983.74
2553,22460,51003.72
2554,22468,51023.70
2555,22472,51043.68
2556,22476,51063.66
2557,22472,51083.63
2558,22468,51103.61
2559,22464,51123.59
2560,22452,51143.57
2561,22448,51163.55
2562,22452,51183.52
2563,22452,51203.50
2564,22460,51223.48
2565,22468,51243.46
2566,22480,51263.44
2567,22488,51283.41
2568,22504,51303.39
2569,22512,51323.37
2570,22520,51343.35
2571,22532,51363.33
2572,22536,51383.30
2573,22544,51403.28
2574,22552,51423.26
2575,22560,51443.24
2576,22568,51463.22
2577,22584,51483.19
2578,22596,51503.17
2579,22608,51523.15
2580,22616,51543.13
2581,22612,51563.11
2582,22596,51583.08
2583,22568,51603.06
2584,22536,51623.04
2585,22516,51643.02
2586,22500,51663.00
2587,22496,51682.97
2588,22500,51702.95
2589,22504,51722.93
2590,22520,51742.91
2591,22532,51762.88
2592,22556,51782.86
2593,22564,51802.84
2594,22572,51822.82
2595,22580,51842.80
2596,22584,51862.77
2597,22576,51882.75
2598,22580,51902.73
2599,22584,51922.71
2600,22588,51942.69
2601,22592,51962.66
2602,22604,51982.64
2603,22612,52002.62
2604,22620,52022.60
2605,22640,52042.58
2606,22652,52062.55
2607,22668,52082.53
2608,22676,52102.51
2609,22688,52122.49
2610,22696,52142.47
2611,22708,52162.44
2612,22716,52182.42
2613,22728,52202.40
2614,22736,52222.38
2615,22732,52242.36
2616,22716,52262.33
2617,22688,52282.31
2618,22652,52302.29
2619,22624,52322.27
2620,22600,52342.25
2621,22588,52362.22
2622,22588,52382.20
2623,22588,52402.18
2624,22596,52422.16
2625,22596,52442.14
2626,22604,52462.11
2627,22612,52482.09
2628,22620,52502.07
2629,22628,52522.05
2630,22636,52542.03
2631,22636,52562.00
2632,22636,52581.98
2633,22636,52601.96
2634,22644,52621.94
2635,22648,52641.91
2636,22652,52661.89
2637,22660,52681.87
2638,22668,52701.85
2639,22684,52721.83
2640,22692,52741.80
2641,22712,52761.78
2642,22724,52781.76
2643,22736,52801.74
2644,22752,52821.72
2645,22760,52841.69
2646,22772,52861.67
2647,22780,52881.65
2648,22792,52901.63
2649,22800,52921.61
2650,22800,52941.58
2651,22780,52961.56
2652,22756,52981.54
2653,22720,53001.52
2654,22692,53021.50
2655,22672,53041.47
2656,22660,53061.45
2657,22652,53081.43
2658,22652,53101.41
2659,22648,53121.39
2660,22644,53141.36
2661,22640,53161.34
2662,22644,53181.32
2663,22648,53201.30
2664,22656,53221.28
2665,22660,53241.25
2666,22660,53261.23
2667,22668,53281.21
2668,22668,53301.19
2669,22672,53321.17
2670,22676,53341.14
2671,22680,53361.12
2672,22684,53381.10
2673,22692,53401.08
2674,22704,53421.06
2675,22716,53441.03
2676,22728,53461.01
2677,22740,53480.99
2678,22752,53500.97
2679,22764,53520.94
2680,22776,53540.92
2681,22788,53560.90
2682,22796,53580.88
2683,22808,53600.86
2684,22816,53620.83
2685,22832,53640.81
2686,22844,53660.79
2687,22856,53680.77
2688,22868,53700.75
2689,22876,53720.72
2690,22892,53740.70
2691,22900,53760.68
2692,22908,53780.66
2693,22896,53800.64
2694,22872,53820.61
2695,22836,53840.59
2696,22800,53860.57
2697,22772,53880.55
2698,22748,53900.53
2699,22732,53920.50
2700,22724,53940.48
2701,22724,53960.46
2702,22716,53980.44
2703,22708,54000.42
2704,22712,54020.39
2705,22712,54040.37
2706,22716,54060.35
2707,22720,54080.33
2708,22724,54100.31
2709,22728,54120.28
2710,22728,54140.26
2711,22724,54160.24
2712,22728,54180.22
2713,22732,54200.20
2714,22732,54220.17
2715,22740,54240.15
2716,22752,54260.13
2717,22756,54280.11
2718,22768,54300.09
2719,22776,54320.06
2720,22780,54340.04
2721,22784,54360.02
2722,22796,54380.00
2723,22804,54399.98
2724,22812,54419.95
2725,22820,54439.93
2726,22832,54459.91
2727,22840,54479.89
2728,22844,54499.86
2729,22856,54519.84
2730,22868,54539.82
2731,22884,54559.80
2732,22888,54579.78
2733,22900,54599.75
2734,22920,54619.73
2735,22928,54639.71
2736,22936,54659.69
2737,22952,54679.67
2738,22960,54699.64
2739,22968,54719.62
2740,22980,54739.60
2741,22980,54759.58
2742,22968,54779.56
2743,22940,54799.53
2744,22912,54819.51
2745,22884,54839.49
2746,22864,54859.47
2747,22852,54879.45
2748,22844,54899.42
2749,22844,54919.40
2750,22840,54939.38
2751,22840,54959.36
2752,22836,54979.34
2753,22840,54999.31
2754,22844,55019.29
2755,22844,55039.27
2756,22848,55059.25
2757,22848,55079.23
2758,22852,55099.20
2759,22852,55119.18
2760,22852,55139.16
2761,22852,55159.14
2762,22856,55179.12
2763,22860,55199.09
2764,22864,55219.07
2765,22868,55239.05
2766,22880,55259.03
2767,22888,55279.01
2768,22892,55298.98
2769,22896,55318.96
2770,22904,55338.94
2771,22916,55358.92
2772,22924,55378.89
2773,22928,55398.87
2774,22936,55418.85
2775,22944,55438.83
2776,22944,55458.81
2777,22956,55478.78
2778,22964,55498.76
2779,22972,55518.74
2780,22980,55538.72
2781,22988,55558.70
2782,23000,55578.67
2783,23012,55598.65
2784,23020,55618.63
2785,23032,55638.61
2786,23036,55658.59
2787,23048,55678.56
2788,23056,55698.54
2789,23068,55718.52
2790,23076,55738.50
2791,23076,55758.48
2792,23064,55778.45
2793,23044,55798.43
2794,23012,55818.41
2795,22992,55838.39
2796,22976,55858.37
2797,22968,55878.34
2798,22956,55898.32
2799,22956,55918.30
2800,22952,55938.28
2801,22952,55958.26
2802,22952,55978.23
2803,22952,55998.21
2804,22952,56018.19
2805,22952,56038.17
2806,22956,56058.15
2807,22952,56078.12
2808,22952,56098.10
2809,22952,56118.08
2810,22952,56138.06
2811,22956,56158.04
2812,22956,56178.01
2813,22956,56197.99
2814,22960,56217.97
2815,22968,56237.95
2816,22968,56257.93
2817,22976,56277.90
2818,22980,56297.88
2819,22984,56317.86
2820,22992,56337.84
2821,23000,56357.81
2822,23008,56377.79
2823,23012,56397.77
2824,23024,56417.75
2825,23028,56437.73
2826,23028,56457.70
2827,23040,56477.68
2828,23044,56497.66
2829,23052,56517.64
2830,23060,56537.62
2831,23068,56557.59
2832,23076,56577.57
2833,23088,56597.55
2834,23096,56617.53
2835,23108,56637.51
2836,23116,56657.48
2837,23124,56677.46
2838,23132,56697.44
2839,23144,56717.42
2840,23148,56737.40
2841,23152,56757.37
2842,23152,56777.35
2843,23128,56797.33
2844,23104,56817.31
2845,23072,56837.29
2846,23048,56857.26
2847,23028,56877.24
2848,23020,56897.22
2849,23012,56917.20
2850,23008,56937.18
2851,23004,56957.15
2852,23004,56977.13
2853,23000,56997.11
2854,23000,57017.09
2855,22996,57037.07
2856,23000,57057.04
2857,22996,57077.02
2858,22996,57097.00
2859,22996,57116.98
2860,22996,57136.96
2861,22988,57156.93
2862,22988,57176.91
2863,22988,57196.89
2864,22992,57216.87
2865,22992,57236.84
2866,22996,57256.82
2867,23000,57276.80
2868,23000,57296.78
2869,23008,57316.76
2870,23012,57336.73
2871,23020,57356.71
2872,23024,57376.69
2873,23032,57396.67
2874,23036,57416.65
2875,23040,57436.62
2876,23044,57456.60
2877,23048,57476.58
2878,23052,57496.56
2879,23056,57516.54
2880,23060,57536.51
2881,23064,57556.49
2882,23072,57576.47
2883,23076,57596.45
2884,23088,57616.43
2885,23092,57636.40
2886,23100,57656.38
2887,23108,57676.36
2888,23116,57696.34
2889,23120,57716.32
2890,23116,57736.29
2891,23092,57756.27
2892,23064,57776.25
2893,23028,57796.23
2894,23000,57816.21
2895,22984,57836.18
2896,22972,57856.16
2897,22964,57876.14
2898,22964,57896.12
2899,22964,57916.10
2900,22968,57936.07
2901,22972,57956.05
2902,22972,57976.03
2903,22976,57996.01
2904,22976,58015.99
2905,22980,58035.96
2906,22972,58055.94
2907,22968,58075.92
2908,22968,58095.90
2909,22968,58115.87
2910,22968,58135.85
2911,22968,58155.83
2912,22980,58175.81
2913,22980,58195.79
2914,22988,58215.76
2915,22996,58235.74
2916,23000,58255.72
2917,23008,58275.70
2918,23008,58295.68
2919,23020,58315.65
2920,23024,58335.63
2921,23032,58355.61
2922,23036,58375.59
2923,23044,58395.57
2924,23052,58415.54
2925,23056,58435.52
2926,23064,58455.50
2927,23076,58475.48
2928,23080,58495.46
2929,23088,58515.43
2930,23096,58535.41
2931,23104,58555.39
2932,23112,58575.37
2933,23120,58595.35
2934,23132,58615.32
2935,23128,58635.30
2936,23108,58655.28
2937,23080,58675.26
2938,23044,58695.24
2939,23008,58715.21
2940,22980,58735.19
2941,22960,58755.17
2942,22948,58775.15
2943,22944,58795.13
2944,22944,58815.10
2945,22944,58835.08
2946,22948,58855.06
2947,22952,58875.04
2948,22960,58895.02
2949,22960,58914.99
2950,22968,58934.97
2951,22960,58954.95
2952,22960,58974.93
2953,22956,58994.91
2954,22948,59014.88
2955,22948,59034.86
2956,22948,59054.84
2957,22952,59074.82
2958,22956,59094.79
2959,22964,59114.77
2960,22972,59134.75
2961,22980,59154.73
2962,22988,59174.71
2963,22996,59194.68
2964,23008,59214.66
2965,23016,59234.64
2966,23020,59254.62
2967,23028,59274.60
2968,23036,59294.57
2969,23040,59314.55
2970,23044,59334.53
2971,23048,59354.51
2972,23056,59374.49
2973,23060,59394.46
2974,23068,59414.44
2975,23076,59434.42
2976,23072,59454.40
2977,23084,59474.38
2978,23092,59494.35
2979,23092,59514.33
2980,23072,59534.31
2981,23044,59554.29
2982,22992,59574.27
2983,22940,59594.24
2984,22896,59614.22
2985,22868,59634.20
2986,22848,59654.18
2987,22836,59674.16
2988,22832,59694.13
2989,22820,59714.11
2990,22820,59734.09
2991,22816,59754.07
2992,22816,59774.05
2993,22812,59794.02
2994,22812,59814.00
2995,22808,59833.98
2996,22804,59853.96
2997,22800,59873.94
2998,22792,59893.91
2999,22788,59913.89
