Sample_Index,IR_Value,Timestamp_ms
0,24044,0.00
1,24060,20.05
2,24072,40.11
3,24080,60.16
4,24092,80.21
5,24104,100.27
6,24120,120.32
7,24140,140.37
8,24148,160.43
9,24140,180.48
10,24120,200.53
11,24096,220.59
12,24064,240.64
13,24036,260.69
14,24016,280.74
15,24004,300.80
16,23996,320.85
17,23996,340.90
18,23996,360.96
19,23996,381.01
20,23992,401.06
21,23992,421.12
22,23996,441.17
23,24008,461.22
24,24016,481.28
25,24028,501.33
26,24036,521.38
27,24044,541.44
28,24052,561.49
29,24060,581.54
30,24064,601.60
31,24076,621.65
32,24092,641.70
33,24104,661.76
34,24120,681.81
35,24132,701.86
36,24148,721.91
37,24160,741.97
38,24172,762.02
39,24180,782.07
40,24192,802.13
41,24200,822.18
42,24212,842.23
43,24228,862.29
44,24236,882.34
45,24244,902.39
46,24240,922.45
47,24232,942.50
48,24216,962.55
49,24196,982.61
50,24172,1002.66
51,24148,1022.71
52,24132,1042.77
53,24124,1062.82
54,24116,1082.87
55,24112,1102.93
56,24112,1122.98
57,24108,1143.03
58,24108,1163.09
59,24108,1183.14
60,24104,1203.19
61,24100,1223.24
62,24096,1243.30
63,24088,1263.35
64,24084,1283.40
65,24076,1303.46
66,24076,1323.51
67,24076,1343.56
68,24076,1363.62
69,24080,1383.67
70,24084,1403.72
71,24084,1423.78
72,24088,1443.83
73,24088,1463.88
74,24092,1483.94
75,24092,1503.99
76,24096,1524.04
77,24104,1544.10
78,24108,1564.15
79,24116,1584.20
80,24120,1604.26
81,24116,1624.31
82,24100,1644.36
83,24080,1664.42
84,24052,1684.47
85,24024,1704.52
86,24000,1724.57
87,23984,1744.63
88,23968,1764.68
89,23960,1784.73
90,23952,1804.79
91,23948,1824.84
92,23944,1844.89
93,23940,1864.95
94,23936,1885.00
95,23936,1905.05
96,23932,1925.11
97,23932,1945.16
98,23932,1965.21
99,23928,1985.27
100,23928,2005.32
101,23928,2025.37
102,23928,2045.43
103,23932,2065.48
104,23932,2085.53
105,23936,2105.59
106,23940,2125.64
107,23944,2145.69
108,23952,2165.74
109,23956,2185.80
110,23964,2205.85
111,23964,2225.90
112,23968,2245.96
113,23964,2266.01
114,23948,2286.06
115,23928,2306.12
116,23900,2326.17
117,23876,2346.22
118,23856,2366.28
119,23836,2386.33
120,23828,2406.38
121,23824,2426.44
122,23816,2446.49
123,23812,2466.54
124,23812,2486.60
125,23808,2506.65
126,23808,2526.70
127,23808,2546.76
128,23804,2566.81
129,23808,2586.86
130,23808,2606.92
131,23808,2626.97
132,23808,2647.02
133,23812,2667.07
134,23812,2687.13
135,23812,2707.18
136,23812,2727.23
137,23820,2747.29
138,23828,2767.34
139,23836,2787.39
140,23848,2807.45
141,23860,2827.50
142,23868,2847.55
143,23880,2867.61
144,23876,2887.66
145,23868,2907.71
146,23844,2927.77
147,23820,2947.82
148,23800,2967.87
149,23780,2987.93
150,23772,3007.98
151,23768,3028.03
152,23772,3048.09
153,23772,3068.14
154,23772,3088.19
155,23776,3108.24
156,23784,3128.30
157,23784,3148.35
158,23796,3168.40
159,23800,3188.46
160,23804,3208.51
161,23808,3228.56
162,23812,3248.62
163,23808,3268.67
164,23812,3288.72
165,23808,3308.78
166,23816,3328.83
167,23812,3348.88
168,23820,3368.94
169,23820,3388.99
170,23828,3409.04
171,23836,3429.10
172,23844,3449.15
173,23852,3469.20
174,23852,3489.26
175,23840,3509.31
176,23816,3529.36
177,23788,3549.42
178,23752,3569.47
179,23728,3589.52
180,23712,3609.57
181,23700,3629.63
182,23700,3649.68
183,23696,3669.73
184,23696,3689.79
185,23696,3709.84
186,23700,3729.89
187,23708,3749.95
188,23716,3770.00
189,23728,3790.05
190,23740,3810.11
191,23752,3830.16
192,23760,3850.21
193,23772,3870.27
194,23780,3890.32
195,23796,3910.37
196,23800,3930.43
197,23816,3950.48
198,23828,3970.53
199,23836,3990.59
200,23852,4010.64
201,23864,4030.69
202,23876,4050.75
203,23888,4070.80
204,23904,4090.85
205,23916,4110.90
206,23924,4130.96
207,23936,4151.01
208,23940,4171.06
209,23940,4191.12
210,23936,4211.17
211,23924,4231.22
212,23896,4251.28
213,23864,4271.33
214,23816,4291.38
215,23780,4311.44
216,23748,4331.49
217,23728,4351.54
218,23712,4371.60
219,23708,4391.65
220,23704,4411.70
221,23704,4431.76
222,23704,4451.81
223,23708,4471.86
224,23712,4491.92
225,23716,4511.97
226,23720,4532.02
227,23728,4552.07
228,23724,4572.13
229,23724,4592.18
230,23716,4612.23
231,23720,4632.29
232,23716,4652.34
233,23716,4672.39
234,23720,4692.45
235,23728,4712.50
236,23736,4732.55
237,23744,4752.61
238,23752,4772.66
239,23760,4792.71
240,23768,4812.77
241,23780,4832.82
242,23788,4852.87
243,23800,4872.93
244,23812,4892.98
245,23820,4913.03
246,23832,4933.09
247,23840,4953.14
248,23840,4973.19
249,23824,4993.25
250,23796,5013.30
251,23764,5033.35
252,23732,5053.40
253,23708,5073.46
254,23696,5093.51
255,23688,5113.56
256,23684,5133.62
257,23688,5153.67
258,23684,5173.72
259,23684,5193.78
260,23688,5213.83
261,23692,5233.88
262,23696,5253.94
263,23700,5273.99
264,23700,5294.04
265,23708,5314.10
266,23712,5334.15
267,23716,5354.20
268,23724,5374.26
269,23732,5394.31
270,23736,5414.36
271,23744,5434.42
272,23752,5454.47
273,23764,5474.52
274,23764,5494.57
275,23772,5514.63
276,23780,5534.68
277,23784,5554.73
278,23792,5574.79
279,23804,5594.84
280,23820,5614.89
281,23828,5634.95
282,23824,5655.00
283,23816,5675.05
284,23796,5695.11
285,23772,5715.16
286,23752,5735.21
287,23740,5755.27
288,23736,5775.32
289,23732,5795.37
290,23736,5815.43
291,23736,5835.48
292,23736,5855.53
293,23740,5875.59
294,23748,5895.64
295,23752,5915.69
296,23760,5935.75
297,23764,5955.80
298,23768,5975.85
299,23772,5995.90
300,23776,6015.96
301,23780,6036.01
302,23784,6056.06
303,23796,6076.12
304,23808,6096.17
305,23820,6116.22
306,23840,6136.28
307,23852,6156.33
308,23864,6176.38
309,23880,6196.44
310,23896,6216.49
311,23908,6236.54
312,23920,6256.60
313,23936,6276.65
314,23944,6296.70
315,23940,6316.76
316,23924,6336.81
317,23900,6356.86
318,23872,6376.92
319,23848,6396.97
320,23832,6417.02
321,23824,6437.07
322,23824,6457.13
323,23824,6477.18
324,23828,6497.23
325,23828,6517.29
326,23828,6537.34
327,23836,6557.39
328,23844,6577.45
329,23852,6597.50
330,23860,6617.55
331,23864,6637.61
332,23868,6657.66
333,23872,6677.71
334,23876,6697.77
335,23876,6717.82
336,23884,6737.87
337,23888,6757.93
338,23900,6777.98
339,23908,6798.03
340,23916,6818.09
341,23924,6838.14
342,23936,6858.19
343,23948,6878.25
344,23956,6898.30
345,23964,6918.35
346,23976,6938.40
347,23988,6958.46
348,24000,6978.51
349,24008,6998.56
350,24000,7018.62
351,23980,7038.67
352,23952,7058.72
353,23920,7078.78
354,23892,7098.83
355,23872,7118.88
356,23860,7138.94
357,23856,7158.99
358,23852,7179.04
359,23856,7199.10
360,23852,7219.15
361,23856,7239.20
362,23860,7259.26
363,23868,7279.31
364,23872,7299.36
365,23876,7319.42
366,23876,7339.47
367,23880,7359.52
368,23884,7379.58
369,23888,7399.63
370,23892,7419.68
371,23896,7439.73
372,23900,7459.79
373,23908,7479.84
374,23916,7499.89
375,23924,7519.95
376,23928,7540.00
377,23936,7560.05
378,23944,7580.11
379,23952,7600.16
380,23964,7620.21
381,23976,7640.27
382,23988,7660.32
383,24004,7680.37
384,24020,7700.43
385,24024,7720.48
386,24016,7740.53
387,24000,7760.59
388,23976,7780.64
389,23948,7800.69
390,23928,7820.75
391,23912,7840.80
392,23908,7860.85
393,23904,7880.90
394,23908,7900.96
395,23912,7921.01
396,23912,7941.06
397,23916,7961.12
398,23924,7981.17
399,23932,8001.22
400,23936,8021.28
401,23940,8041.33
402,23948,8061.38
403,23948,8081.44
404,23948,8101.49
405,23952,8121.54
406,23952,8141.60
407,23960,8161.65
408,23964,8181.70
409,23972,8201.76
410,23980,8221.81
411,23992,8241.86
412,24004,8261.92
413,24012,8281.97
414,24024,8302.02
415,24040,8322.08
416,24052,8342.13
417,24060,8362.18
418,24056,8382.23
419,24044,8402.29
420,24020,8422.34
421,23996,8442.39
422,23976,8462.45
423,23964,8482.50
424,23956,8502.55
425,23956,8522.61
426,23960,8542.66
427,23960,8562.71
428,23968,8582.77
429,23972,8602.82
430,23980,8622.87
431,23988,8642.93
432,23996,8662.98
433,24000,8683.03
434,24004,8703.09
435,24012,8723.14
436,24012,8743.19
437,24016,8763.25
438,24020,8783.30
439,24028,8803.35
440,24036,8823.40
441,24040,8843.46
442,24044,8863.51
443,24052,8883.56
444,24060,8903.62
445,24064,8923.67
446,24076,8943.72
447,24080,8963.78
448,24068,8983.83
449,24040,9003.88
450,24008,9023.94
451,23976,9043.99
452,23948,9064.04
453,23928,9084.10
454,23916,9104.15
455,23912,9124.20
456,23912,9144.26
457,23912,9164.31
458,23916,9184.36
459,23920,9204.42
460,23924,9224.47
461,23928,9244.52
462,23932,9264.58
463,23936,9284.63
464,23936,9304.68
465,23940,9324.73
466,23940,9344.79
467,23944,9364.84
468,23948,9384.89
469,23956,9404.95
470,23960,9425.00
471,23964,9445.05
472,23972,9465.11
473,23980,9485.16
474,23984,9505.21
475,23996,9525.27
476,24004,9545.32
477,24008,9565.37
478,24008,9585.43
479,24000,9605.48
480,23976,9625.53
481,23940,9645.59
482,23908,9665.64
483,23876,9685.69
484,23856,9705.75
485,23848,9725.80
486,23840,9745.85
487,23840,9765.91
488,23844,9785.96
489,23844,9806.01
490,23848,9826.06
491,23856,9846.12
492,23864,9866.17
493,23872,9886.22
494,23880,9906.28
495,23884,9926.33
496,23892,9946.38
497,23900,9966.44
498,23904,9986.49
499,23912,10006.54
500,23916,10026.60
501,23924,10046.65
502,23936,10066.70
503,23948,10086.76
504,23956,10106.81
505,23968,10126.86
506,23980,10146.92
507,23992,10166.97
508,24004,10187.02
509,24016,10207.08
510,24024,10227.13
511,24036,10247.18
512,24044,10267.23
513,24048,10287.29
514,24040,10307.34
515,24020,10327.39
516,23992,10347.45
517,23972,10367.50
518,23956,10387.55
519,23948,10407.61
520,23948,10427.66
521,23948,10447.71
522,23952,10467.77
523,23956,10487.82
524,23964,10507.87
525,23968,10527.93
526,23980,10547.98
527,23984,10568.03
528,23988,10588.09
529,23984,10608.14
530,23984,10628.19
531,23988,10648.25
532,23988,10668.30
533,23992,10688.35
534,23996,10708.41
535,24004,10728.46
536,24012,10748.51
537,24020,10768.56
538,24032,10788.62
539,24044,10808.67
540,24056,10828.72
541,24060,10848.78
542,24072,10868.83
543,24080,10888.88
544,24088,10908.94
545,24096,10928.99
546,24104,10949.04
547,24112,10969.10
548,24104,10989.15
549,24088,11009.20
550,24068,11029.26
551,24044,11049.31
552,24020,11069.36
553,23996,11089.42
554,23976,11109.47
555,23960,11129.52
556,23952,11149.58
557,23944,11169.63
558,23940,11189.68
559,23944,11209.73
560,23948,11229.79
561,23952,11249.84
562,23952,11269.89
563,23952,11289.95
564,23948,11310.00
565,23944,11330.05
566,23936,11350.11
567,23936,11370.16
568,23932,11390.21
569,23920,11410.27
570,23916,11430.32
571,23912,11450.37
572,23908,11470.43
573,23900,11490.48
574,23896,11510.53
575,23892,11530.59
576,23896,11550.64
577,23904,11570.69
578,23908,11590.75
579,23916,11610.80
580,23920,11630.85
581,23908,11650.91
582,23888,11670.96
583,23864,11691.01
584,23848,11711.06
585,23840,11731.12
586,23836,11751.17
587,23836,11771.22
588,23844,11791.28
589,23856,11811.33
590,23872,11831.38
591,23888,11851.44
592,23900,11871.49
593,23912,11891.54
594,23920,11911.60
595,23924,11931.65
596,23932,11951.70
597,23940,11971.76
598,23952,11991.81
599,23964,12011.86
600,23972,12031.92
601,23980,12051.97
602,23988,12072.02
603,23996,12092.08
604,24004,12112.13
605,24016,12132.18
606,24024,12152.24
607,24032,12172.29
608,24040,12192.34
609,24048,12212.39
610,24056,12232.45
611,24064,12252.50
612,24072,12272.55
613,24068,12292.61
614,24052,12312.66
615,24020,12332.71
616,23980,12352.77
617,23948,12372.82
618,23924,12392.87
619,23904,12412.93
620,23896,12432.98
621,23884,12453.03
622,23876,12473.09
623,23868,12493.14
624,23860,12513.19
625,23852,12533.25
626,23848,12553.30
627,23844,12573.35
628,23836,12593.41
629,23836,12613.46
630,23828,12633.51
631,23824,12653.56
632,23820,12673.62
633,23816,12693.67
634,23816,12713.72
635,23820,12733.78
636,23824,12753.83
637,23828,12773.88
638,23832,12793.94
639,23840,12813.99
640,23844,12834.04
641,23848,12854.10
642,23852,12874.15
643,23852,12894.20
644,23856,12914.26
645,23856,12934.31
646,23860,12954.36
647,23864,12974.42
648,23852,12994.47
649,23836,13014.52
650,23812,13034.58
651,23784,13054.63
652,23760,13074.68
653,23744,13094.74
654,23732,13114.79
655,23732,13134.84
656,23728,13154.89
657,23728,13174.95
658,23732,13195.00
659,23736,13215.05
660,23740,13235.11
661,23748,13255.16
662,23756,13275.21
663,23760,13295.27
664,23760,13315.32
665,23764,13335.37
666,23760,13355.43
667,23768,13375.48
668,23772,13395.53
669,23776,13415.59
670,23788,13435.64
671,23792,13455.69
672,23792,13475.75
673,23796,13495.80
674,23796,13515.85
675,23800,13535.91
676,23804,13555.96
677,23804,13576.01
678,23804,13596.06
679,23808,13616.12
680,23812,13636.17
681,23820,13656.22
682,23820,13676.28
683,23808,13696.33
684,23792,13716.38
685,23768,13736.44
686,23748,13756.49
687,23732,13776.54
688,23724,13796.60
689,23720,13816.65
690,23724,13836.70
691,23732,13856.76
692,23740,13876.81
693,23752,13896.86
694,23760,13916.92
695,23768,13936.97
696,23776,13957.02
697,23776,13977.08
698,23776,13997.13
699,23780,14017.18
700,23780,14037.24
701,23780,14057.29
702,23784,14077.34
703,23780,14097.39
704,23788,14117.45
705,23796,14137.50
706,23804,14157.55
707,23816,14177.61
708,23820,14197.66
709,23832,14217.71
710,23840,14237.77
711,23852,14257.82
712,23864,14277.87
713,23868,14297.93
714,23860,14317.98
715,23840,14338.03
716,23816,14358.09
717,23792,14378.14
718,23776,14398.19
719,23764,14418.25
720,23756,14438.30
721,23752,14458.35
722,23748,14478.41
723,23744,14498.46
724,23744,14518.51
725,23744,14538.56
726,23748,14558.62
727,23748,14578.67
728,23748,14598.72
729,23748,14618.78
730,23744,14638.83
731,23744,14658.88
732,23748,14678.94
733,23756,14698.99
734,23760,14719.04
735,23772,14739.10
736,23784,14759.15
737,23800,14779.20
738,23812,14799.26
739,23824,14819.31
740,23840,14839.36
741,23852,14859.42
742,23864,14879.47
743,23876,14899.52
744,23888,14919.58
745,23892,14939.63
746,23872,14959.68
747,23844,14979.74
748,23808,14999.79
749,23780,15019.84
750,23760,15039.89
751,23748,15059.95
752,23744,15080.00
753,23744,15100.05
754,23752,15120.11
755,23760,15140.16
756,23768,15160.21
757,23776,15180.27
758,23780,15200.32
759,23788,15220.37
760,23792,15240.43
761,23800,15260.48
762,23804,15280.53
763,23808,15300.59
764,23816,15320.64
765,23824,15340.69
766,23832,15360.75
767,23844,15380.80
768,23852,15400.85
769,23864,15420.91
770,23872,15440.96
771,23884,15461.01
772,23888,15481.07
773,23900,15501.12
774,23912,15521.17
775,23928,15541.22
776,23940,15561.28
777,23952,15581.33
778,23952,15601.38
779,23940,15621.44
780,23912,15641.49
781,23888,15661.54
782,23860,15681.60
783,23844,15701.65
784,23836,15721.70
785,23840,15741.76
786,23840,15761.81
787,23848,15781.86
788,23856,15801.92
789,23864,15821.97
790,23872,15842.02
791,23880,15862.08
792,23884,15882.13
793,23892,15902.18
794,23892,15922.24
795,23896,15942.29
796,23900,15962.34
797,23904,15982.39
798,23904,16002.45
799,23908,16022.50
800,23912,16042.55
801,23916,16062.61
802,23920,16082.66
803,23920,16102.71
804,23920,16122.77
805,23928,16142.82
806,23936,16162.87
807,23948,16182.93
808,23956,16202.98
809,23972,16223.03
810,23980,16243.09
811,23984,16263.14
812,23972,16283.19
813,23948,16303.25
814,23924,16323.30
815,23896,16343.35
816,23880,16363.41
817,23876,16383.46
818,23880,16403.51
819,23888,16423.57
820,23900,16443.62
821,23908,16463.67
822,23924,16483.72
823,23932,16503.78
824,23940,16523.83
825,23948,16543.88
826,23948,16563.94
827,23956,16583.99
828,23952,16604.04
829,23956,16624.10
830,23952,16644.15
831,23952,16664.20
832,23948,16684.26
833,23948,16704.31
834,23952,16724.36
835,23960,16744.42
836,23968,16764.47
837,23980,16784.52
838,23988,16804.58
839,23996,16824.63
840,24004,16844.68
841,24004,16864.74
842,23992,16884.79
843,23968,16904.84
844,23932,16924.89
845,23896,16944.95
846,23864,16965.00
847,23844,16985.05
848,23828,17005.11
849,23820,17025.16
850,23820,17045.21
851,23820,17065.27
852,23820,17085.32
853,23824,17105.37
854,23824,17125.43
855,23828,17145.48
856,23824,17165.53
857,23820,17185.59
858,23812,17205.64
859,23808,17225.69
860,23808,17245.75
861,23804,17265.80
862,23808,17285.85
863,23812,17305.91
864,23820,17325.96
865,23828,17346.01
866,23836,17366.07
867,23844,17386.12
868,23848,17406.17
869,23860,17426.22
870,23868,17446.28
871,23872,17466.33
872,23860,17486.38
873,23832,17506.44
874,23792,17526.49
875,23752,17546.54
876,23724,17566.60
877,23704,17586.65
878,23704,17606.70
879,23708,17626.76
880,23712,17646.81
881,23724,17666.86
882,23732,17686.92
883,23740,17706.97
884,23752,17727.02
885,23760,17747.08
886,23768,17767.13
887,23776,17787.18
888,23784,17807.24
889,23788,17827.29
890,23792,17847.34
891,23796,17867.40
892,23808,17887.45
893,23816,17907.50
894,23828,17927.55
895,23840,17947.61
896,23856,17967.66
897,23868,17987.71
898,23884,18007.77
899,23900,18027.82
900,23908,18047.87
901,23920,18067.93
902,23932,18087.98
903,23936,18108.03
904,23928,18128.09
905,23904,18148.14
906,23868,18168.19
907,23832,18188.25
908,23800,18208.30
909,23784,18228.35
910,23776,18248.41
911,23776,18268.46
912,23780,18288.51
913,23784,18308.57
914,23792,18328.62
915,23800,18348.67
916,23812,18368.72
917,23824,18388.78
918,23836,18408.83
919,23844,18428.88
920,23852,18448.94
921,23856,18468.99
922,23860,18489.04
923,23868,18509.10
924,23880,18529.15
925,23892,18549.20
926,23896,18569.26
927,23908,18589.31
928,23916,18609.36
929,23928,18629.42
930,23940,18649.47
931,23952,18669.52
932,23964,18689.58
933,23972,18709.63
934,23984,18729.68
935,23996,18749.74
936,24008,18769.79
937,24012,18789.84
938,24008,18809.90
939,23980,18829.95
940,23944,18850.00
941,23904,18870.05
942,23872,18890.11
943,23852,18910.16
944,23836,18930.21
945,23836,18950.27
946,23836,18970.32
947,23840,18990.37
948,23844,19010.43
949,23852,19030.48
950,23860,19050.53
951,23868,19070.59
952,23868,19090.64
953,23868,19110.69
954,23868,19130.75
955,23864,19150.80
956,23864,19170.85
957,23864,19190.91
958,23868,19210.96
959,23876,19231.01
960,23884,19251.07
961,23892,19271.12
962,23904,19291.17
963,23912,19311.22
964,23920,19331.28
965,23928,19351.33
966,23936,19371.38
967,23944,19391.44
968,23948,19411.49
969,23944,19431.54
970,23920,19451.60
971,23884,19471.65
972,23844,19491.70
973,23808,19511.76
974,23784,19531.81
975,23764,19551.86
976,23756,19571.92
977,23752,19591.97
978,23756,19612.02
979,23756,19632.08
980,23764,19652.13
981,23772,19672.18
982,23780,19692.24
983,23788,19712.29
984,23792,19732.34
985,23792,19752.40
986,23796,19772.45
987,23792,19792.50
988,23796,19812.55
989,23800,19832.61
990,23804,19852.66
991,23812,19872.71
992,23824,19892.77
993,23832,19912.82
994,23840,19932.87
995,23848,19952.93
996,23860,19972.98
997,23876,19993.03
998,23884,20013.09
999,23892,20033.14
1000,23888,20053.19
1001,23876,20073.25
1002,23844,20093.30
1003,23808,20113.35
1004,23772,20133.41
1005,23748,20153.46
1006,23740,20173.51
1007,23736,20193.57
1008,23740,20213.62
1009,23748,20233.67
1010,23756,20253.73
1011,23764,20273.78
1012,23772,20293.83
1013,23784,20313.88
1014,23796,20333.94
1015,23800,20353.99
1016,23812,20374.04
1017,23816,20394.10
1018,23824,20414.15
1019,23828,20434.20
1020,23836,20454.26
1021,23844,20474.31
1022,23852,20494.36
1023,23860,20514.42
1024,23872,20534.47
1025,23884,20554.52
1026,23896,20574.58
1027,23908,20594.63
1028,23924,20614.68
1029,23932,20634.74
1030,23944,20654.79
1031,23956,20674.84
1032,23968,20694.90
1033,23972,20714.95
1034,23964,20735.00
1035,23944,20755.05
1036,23908,20775.11
1037,23872,20795.16
1038,23836,20815.21
1039,23816,20835.27
1040,23804,20855.32
1041,23804,20875.37
1042,23808,20895.43
1043,23812,20915.48
1044,23824,20935.53
1045,23832,20955.59
1046,23840,20975.64
1047,23852,20995.69
1048,23856,21015.75
1049,23864,21035.80
1050,23868,21055.85
1051,23876,21075.91
1052,23884,21095.96
1053,23884,21116.01
1054,23892,21136.07
1055,23900,21156.12
1056,23908,21176.17
1057,23920,21196.23
1058,23932,21216.28
1059,23948,21236.33
1060,23964,21256.38
1061,23976,21276.44
1062,23988,21296.49
1063,24000,21316.54
1064,24012,21336.60
1065,24024,21356.65
1066,24040,21376.70
1067,24052,21396.76
1068,24060,21416.81
1069,24076,21436.86
1070,24076,21456.92
1071,24060,21476.97
1072,24036,21497.02
1073,23996,21517.08
1074,23960,21537.13
1075,23928,21557.18
1076,23912,21577.24
1077,23904,21597.29
1078,23904,21617.34
1079,23912,21637.40
1080,23920,21657.45
1081,23932,21677.50
1082,23940,21697.55
1083,23952,21717.61
1084,23964,21737.66
1085,23968,21757.71
1086,23976,21777.77
1087,23980,21797.82
1088,23984,21817.87
1089,23988,21837.93
1090,23996,21857.98
1091,24004,21878.03
1092,24012,21898.09
1093,24020,21918.14
1094,24032,21938.19
1095,24044,21958.25
1096,24052,21978.30
1097,24060,21998.35
1098,24076,22018.41
1099,24088,22038.46
1100,24100,22058.51
1101,24108,22078.57
1102,24116,22098.62
1103,24128,22118.67
1104,24136,22138.73
1105,24136,22158.78
1106,24124,22178.83
1107,24096,22198.88
1108,24060,22218.94
1109,24020,22238.99
1110,23992,22259.04
1111,23976,22279.10
1112,23972,22299.15
1113,23972,22319.20
1114,23976,22339.26
1115,23984,22359.31
1116,23996,22379.36
1117,24008,22399.42
1118,24016,22419.47
1119,24028,22439.52
1120,24040,22459.58
1121,24040,22479.63
1122,24048,22499.68
1123,24044,22519.74
1124,24048,22539.79
1125,24052,22559.84
1126,24060,22579.90
1127,24064,22599.95
1128,24076,22620.00
1129,24084,22640.06
1130,24092,22660.11
1131,24108,22680.16
1132,24116,22700.21
1133,24128,22720.27
1134,24136,22740.32
1135,24152,22760.37
1136,24156,22780.43
1137,24164,22800.48
1138,24164,22820.53
1139,24144,22840.59
1140,24112,22860.64
1141,24072,22880.69
1142,24032,22900.75
1143,24008,22920.80
1144,23988,22940.85
1145,23980,22960.91
1146,23980,22980.96
1147,23984,23001.01
1148,23992,23021.07
1149,24000,23041.12
1150,24008,23061.17
1151,24020,23081.23
1152,24028,23101.28
1153,24032,23121.33
1154,24032,23141.38
1155,24036,23161.44
1156,24036,23181.49
1157,24040,23201.54
1158,24040,23221.60
1159,24048,23241.65
1160,24056,23261.70
1161,24064,23281.76
1162,24076,23301.81
1163,24084,23321.86
1164,24096,23341.92
1165,24108,23361.97
1166,24120,23382.02
1167,24132,23402.08
1168,24140,23422.13
1169,24152,23442.18
1170,24164,23462.24
1171,24172,23482.29
1172,24168,23502.34
1173,24148,23522.40
1174,24112,23542.45
1175,24068,23562.50
1176,24028,23582.56
1177,23996,23602.61
1178,23976,23622.66
1179,23972,23642.71
1180,23968,23662.77
1181,23972,23682.82
1182,23980,23702.87
1183,23988,23722.93
1184,23996,23742.98
1185,24004,23763.03
1186,24012,23783.09
1187,24016,23803.14
1188,24012,23823.19
1189,24012,23843.25
1190,24012,23863.30
1191,24016,23883.35
1192,24024,23903.41
1193,24028,23923.46
1194,24036,23943.51
1195,24044,23963.57
1196,24056,23983.62
1197,24064,24003.67
1198,24072,24023.73
1199,24084,24043.78
1200,24092,24063.83
1201,24100,24083.88
1202,24108,24103.94
1203,24116,24123.99
1204,24128,24144.04
1205,24136,24164.10
1206,24140,24184.15
1207,24128,24204.20
1208,24096,24224.26
1209,24056,24244.31
1210,24012,24264.36
1211,23980,24284.42
1212,23960,24304.47
1213,23956,24324.52
1214,23952,24344.58
1215,23956,24364.63
1216,23964,24384.68
1217,23976,24404.74
1218,23988,24424.79
1219,24000,24444.84
1220,24004,24464.90
1221,24008,24484.95
1222,24004,24505.00
1223,24004,24525.06
1224,24004,24545.11
1225,24004,24565.16
1226,24008,24585.21
1227,24016,24605.27
1228,24024,24625.32
1229,24032,24645.37
1230,24040,24665.43
1231,24048,24685.48
1232,24060,24705.53
1233,24068,24725.59
1234,24080,24745.64
1235,24088,24765.69
1236,24100,24785.75
1237,24108,24805.80
1238,24108,24825.85
1239,24088,24845.91
1240,24052,24865.96
1241,24004,24886.01
1242,23964,24906.07
1243,23932,24926.12
1244,23916,24946.17
1245,23908,24966.23
1246,23912,24986.28
1247,23920,25006.33
1248,23928,25026.38
1249,23940,25046.44
1250,23952,25066.49
1251,23960,25086.54
1252,23956,25106.60
1253,23948,25126.65
1254,23940,25146.70
1255,23936,25166.76
1256,23932,25186.81
1257,23932,25206.86
1258,23932,25226.92
1259,23940,25246.97
1260,23948,25267.02
1261,23956,25287.08
1262,23964,25307.13
1263,23972,25327.18
1264,23988,25347.24
1265,23996,25367.29
1266,24004,25387.34
1267,24016,25407.40
1268,24024,25427.45
1269,24016,25447.50
1270,23984,25467.56
1271,23940,25487.61
1272,23884,25507.66
1273,23844,25527.71
1274,23812,25547.77
1275,23800,25567.82
1276,23792,25587.87
1277,23796,25607.93
1278,23804,25627.98
1279,23812,25648.03
1280,23824,25668.09
1281,23832,25688.14
1282,23840,25708.19
1283,23840,25728.25
1284,23840,25748.30
1285,23840,25768.35
1286,23836,25788.41
1287,23840,25808.46
1288,23840,25828.51
1289,23848,25848.57
1290,23856,25868.62
1291,23868,25888.67
1292,23876,25908.73
1293,23888,25928.78
1294,23900,25948.83
1295,23908,25968.89
1296,23920,25988.94
1297,23932,26008.99
1298,23944,26029.04
1299,23952,26049.10
1300,23956,26069.15
1301,23964,26089.20
1302,23948,26109.26
1303,23912,26129.31
1304,23864,26149.36
1305,23808,26169.42
1306,23764,26189.47
1307,23728,26209.52
1308,23716,26229.58
1309,23712,26249.63
1310,23712,26269.68
1311,23716,26289.74
1312,23728,26309.79
1313,23740,26329.84
1314,23748,26349.90
1315,23752,26369.95
1316,23760,26390.00
1317,23764,26410.06
1318,23760,26430.11
1319,23760,26450.16
1320,23764,26470.21
1321,23768,26490.27
1322,23772,26510.32
1323,23776,26530.37
1324,23784,26550.43
1325,23796,26570.48
1326,23808,26590.53
1327,23816,26610.59
1328,23832,26630.64
1329,23844,26650.69
1330,23860,26670.75
1331,23872,26690.80
1332,23892,26710.85
1333,23908,26730.91
1334,23928,26750.96
1335,23940,26771.01
1336,23948,26791.07
1337,23936,26811.12
1338,23904,26831.17
1339,23860,26851.23
1340,23808,26871.28
1341,23768,26891.33
1342,23736,26911.39
1343,23724,26931.44
1344,23716,26951.49
1345,23712,26971.54
1346,23712,26991.60
1347,23708,27011.65
1348,23704,27031.70
1349,23700,27051.76
1350,23696,27071.81
1351,23688,27091.86
1352,23684,27111.92
1353,23676,27131.97
1354,23672,27152.02
1355,23668,27172.08
1356,23668,27192.13
1357,23668,27212.18
1358,23676,27232.24
1359,23684,27252.29
1360,23692,27272.34
1361,23700,27292.40
1362,23708,27312.45
1363,23720,27332.50
1364,23732,27352.56
1365,23740,27372.61
1366,23748,27392.66
1367,23756,27412.71
1368,23760,27432.77
1369,23768,27452.82
1370,23764,27472.87
1371,23744,27492.93
1372,23704,27512.98
1373,23648,27533.03
1374,23600,27553.09
1375,23560,27573.14
1376,23536,27593.19
1377,23528,27613.25
1378,23532,27633.30
1379,23532,27653.35
1380,23544,27673.41
1381,23552,27693.46
1382,23564,27713.51
1383,23576,27733.57
1384,23580,27753.62
1385,23588,27773.67
1386,23584,27793.73
1387,23584,27813.78
1388,23580,27833.83
1389,23584,27853.89
1390,23588,27873.94
1391,23596,27893.99
1392,23604,27914.04
1393,23616,27934.10
1394,23628,27954.15
1395,23644,27974.20
1396,23660,27994.26
1397,23672,28014.31
1398,23688,28034.36
1399,23700,28054.42
1400,23716,28074.47
1401,23728,28094.52
1402,23740,28114.58
1403,23752,28134.63
1404,23752,28154.68
1405,23732,28174.74
1406,23688,28194.79
1407,23632,28214.84
1408,23580,28234.90
1409,23540,28254.95
1410,23512,28275.00
1411,23500,28295.06
1412,23496,28315.11
1413,23500,28335.16
1414,23504,28355.22
1415,23508,28375.27
1416,23520,28395.32
1417,23528,28415.37
1418,23536,28435.43
1419,23544,28455.48
1420,23544,28475.53
1421,23544,28495.59
1422,23544,28515.64
1423,23544,28535.69
1424,23552,28555.75
1425,23556,28575.80
1426,23572,28595.85
1427,23588,28615.91
1428,23604,28635.96
1429,23616,28656.01
1430,23636,28676.07
1431,23652,28696.12
1432,23668,28716.17
1433,23684,28736.23
1434,23696,28756.28
1435,23708,28776.33
1436,23724,28796.39
1437,23740,28816.44
1438,23752,28836.49
1439,23764,28856.54
1440,23780,28876.60
1441,23796,28896.65
1442,23812,28916.70
1443,23824,28936.76
1444,23836,28956.81
1445,23824,28976.86
1446,23788,28996.92
1447,23736,29016.97
1448,23680,29037.02
1449,23624,29057.08
1450,23592,29077.13
1451,23576,29097.18
1452,23572,29117.24
1453,23576,29137.29
1454,23580,29157.34
1455,23596,29177.40
1456,23604,29197.45
1457,23616,29217.50
1458,23624,29237.56
1459,23632,29257.61
1460,23640,29277.66
1461,23640,29297.72
1462,23640,29317.77
1463,23640,29337.82
1464,23648,29357.87
1465,23652,29377.93
1466,23656,29397.98
1467,23668,29418.03
1468,23680,29438.09
1469,23692,29458.14
1470,23712,29478.19
1471,23724,29498.25
1472,23740,29518.30
1473,23756,29538.35
1474,23768,29558.41
1475,23784,29578.46
1476,23796,29598.51
1477,23808,29618.57
1478,23820,29638.62
1479,23832,29658.67
1480,23844,29678.73
1481,23852,29698.78
1482,23868,29718.83
1483,23876,29738.89
1484,23864,29758.94
1485,23832,29778.99
1486,23780,29799.04
1487,23724,29819.10
1488,23676,29839.15
1489,23644,29859.20
1490,23628,29879.26
1491,23628,29899.31
1492,23632,29919.36
1493,23640,29939.42
1494,23652,29959.47
1495,23668,29979.52
1496,23680,29999.58
1497,23688,30019.63
1498,23688,30039.68
1499,23684,30059.74
1500,23676,30079.79
1501,23672,30099.84
1502,23664,30119.90
1503,23668,30139.95
1504,23676,30160.00
1505,23688,30180.06
1506,23700,30200.11
1507,23716,30220.16
1508,23736,30240.22
1509,23748,30260.27
1510,23760,30280.32
1511,23776,30300.37
1512,23792,30320.43
1513,23808,30340.48
1514,23820,30360.53
1515,23840,30380.59
1516,23856,30400.64
1517,23872,30420.69
1518,23884,30440.75
1519,23880,30460.80
1520,23852,30480.85
1521,23800,30500.91
1522,23744,30520.96
1523,23696,30541.01
1524,23664,30561.07
1525,23648,30581.12
1526,23644,30601.17
1527,23648,30621.23
1528,23656,30641.28
1529,23660,30661.33
1530,23672,30681.39
1531,23680,30701.44
1532,23696,30721.49
1533,23700,30741.55
1534,23708,30761.60
1535,23708,30781.65
1536,23716,30801.70
1537,23716,30821.76
1538,23724,30841.81
1539,23732,30861.86
1540,23744,30881.92
1541,23752,30901.97
1542,23764,30922.02
1543,23780,30942.08
1544,23792,30962.13
1545,23812,30982.18
1546,23828,31002.24
1547,23844,31022.29
1548,23860,31042.34
1549,23880,31062.40
1550,23892,31082.45
1551,23908,31102.50
1552,23924,31122.56
1553,23936,31142.61
1554,23944,31162.66
1555,23964,31182.72
1556,23976,31202.77
1557,23996,31222.82
1558,24008,31242.87
1559,24024,31262.93
1560,24032,31282.98
1561,24028,31303.03
1562,23996,31323.09
1563,23948,31343.14
1564,23892,31363.19
1565,23848,31383.25
1566,23816,31403.30
1567,23804,31423.35
1568,23800,31443.41
1569,23804,31463.46
1570,23816,31483.51
1571,23824,31503.57
1572,23832,31523.62
1573,23840,31543.67
1574,23852,31563.73
1575,23856,31583.78
1576,23860,31603.83
1577,23860,31623.89
1578,23860,31643.94
1579,23856,31663.99
1580,23864,31684.05
1581,23868,31704.10
1582,23876,31724.15
1583,23884,31744.20
1584,23892,31764.26
1585,23904,31784.31
1586,23916,31804.36
1587,23928,31824.42
1588,23940,31844.47
1589,23956,31864.52
1590,23968,31884.58
1591,23980,31904.63
1592,23992,31924.68
1593,24000,31944.74
1594,24012,31964.79
1595,24020,31984.84
1596,24028,32004.90
1597,24032,32024.95
1598,24024,32045.00
1599,23988,32065.06
1600,23944,32085.11
1601,23896,32105.16
1602,23856,32125.22
1603,23828,32145.27
1604,23816,32165.32
1605,23812,32185.37
1606,23812,32205.43
1607,23820,32225.48
1608,23824,32245.53
1609,23836,32265.59
1610,23844,32285.64
1611,23848,32305.69
1612,23848,32325.75
1613,23844,32345.80
1614,23836,32365.85
1615,23820,32385.91
1616,23812,32405.96
1617,23808,32426.01
1618,23808,32446.07
1619,23812,32466.12
1620,23812,32486.17
1621,23820,32506.23
1622,23832,32526.28
1623,23840,32546.33
1624,23848,32566.39
1625,23860,32586.44
1626,23868,32606.49
1627,23884,32626.55
1628,23888,32646.60
1629,23896,32666.65
1630,23908,32686.70
1631,23912,32706.76
1632,23900,32726.81
1633,23868,32746.86
1634,23820,32766.92
1635,23764,32786.97
1636,23724,32807.02
1637,23696,32827.08
1638,23680,32847.13
1639,23676,32867.18
1640,23676,32887.24
1641,23684,32907.29
1642,23692,32927.34
1643,23696,32947.40
1644,23704,32967.45
1645,23712,32987.50
1646,23716,33007.56
1647,23720,33027.61
1648,23720,33047.66
1649,23720,33067.72
1650,23716,33087.77
1651,23724,33107.82
1652,23728,33127.88
1653,23736,33147.93
1654,23748,33167.98
1655,23756,33188.03
1656,23764,33208.09
1657,23772,33228.14
1658,23780,33248.19
1659,23792,33268.25
1660,23808,33288.30
1661,23824,33308.35
1662,23836,33328.41
1663,23848,33348.46
1664,23864,33368.51
1665,23880,33388.57
1666,23892,33408.62
1667,23908,33428.67
1668,23916,33448.73
1669,23900,33468.78
1670,23868,33488.83
1671,23820,33508.89
1672,23772,33528.94
1673,23736,33548.99
1674,23712,33569.05
1675,23704,33589.10
1676,23704,33609.15
1677,23708,33629.20
1678,23712,33649.26
1679,23720,33669.31
1680,23728,33689.36
1681,23736,33709.42
1682,23744,33729.47
1683,23756,33749.52
1684,23760,33769.58
1685,23764,33789.63
1686,23768,33809.68
1687,23768,33829.74
1688,23768,33849.79
1689,23772,33869.84
1690,23776,33889.90
1691,23784,33909.95
1692,23792,33930.00
1693,23808,33950.06
1694,23816,33970.11
1695,23832,33990.16
1696,23844,34010.22
1697,23852,34030.27
1698,23864,34050.32
1699,23872,34070.38
1700,23880,34090.43
1701,23888,34110.48
1702,23900,34130.53
1703,23908,34150.59
1704,23916,34170.64
1705,23916,34190.69
1706,23896,34210.75
1707,23852,34230.80
1708,23796,34250.85
1709,23744,34270.91
1710,23696,34290.96
1711,23668,34311.01
1712,23652,34331.07
1713,23652,34351.12
1714,23656,34371.17
1715,23660,34391.23
1716,23664,34411.28
1717,23668,34431.33
1718,23672,34451.39
1719,23672,34471.44
1720,23668,34491.49
1721,23664,34511.55
1722,23660,34531.60
1723,23656,34551.65
1724,23652,34571.70
1725,23648,34591.76
1726,23652,34611.81
1727,23660,34631.86
1728,23664,34651.92
1729,23672,34671.97
1730,23680,34692.02
1731,23692,34712.08
1732,23708,34732.13
1733,23724,34752.18
1734,23736,34772.24
1735,23744,34792.29
1736,23748,34812.34
1737,23756,34832.40
1738,23768,34852.45
1739,23772,34872.50
1740,23764,34892.56
1741,23740,34912.61
1742,23696,34932.66
1743,23648,34952.72
1744,23608,34972.77
1745,23584,34992.82
1746,23576,35012.88
1747,23576,35032.93
1748,23584,35052.98
1749,23596,35073.03
1750,23608,35093.09
1751,23628,35113.14
1752,23640,35133.19
1753,23656,35153.25
1754,23668,35173.30
1755,23672,35193.35
1756,23676,35213.41
1757,23676,35233.46
1758,23680,35253.51
1759,23684,35273.57
1760,23692,35293.62
1761,23708,35313.67
1762,23720,35333.73
1763,23736,35353.78
1764,23756,35373.83
1765,23772,35393.89
1766,23788,35413.94
1767,23808,35433.99
1768,23828,35454.05
1769,23844,35474.10
1770,23856,35494.15
1771,23864,35514.20
1772,23876,35534.26
1773,23888,35554.31
1774,23896,35574.36
1775,23904,35594.42
1776,23908,35614.47
1777,23900,35634.52
1778,23868,35654.58
1779,23812,35674.63
1780,23748,35694.68
1781,23692,35714.74
1782,23648,35734.79
1783,23624,35754.84
1784,23612,35774.90
1785,23608,35794.95
1786,23612,35815.00
1787,23616,35835.06
1788,23624,35855.11
1789,23632,35875.16
1790,23636,35895.22
1791,23644,35915.27
1792,23648,35935.32
1793,23656,35955.38
1794,23656,35975.43
1795,23660,35995.48
1796,23668,36015.53
1797,23672,36035.59
1798,23680,36055.64
1799,23692,36075.69
1800,23704,36095.75
1801,23720,36115.80
1802,23740,36135.85
1803,23756,36155.91
1804,23772,36175.96
1805,23788,36196.01
1806,23800,36216.07
1807,23820,36236.12
1808,23832,36256.17
1809,23848,36276.23
1810,23860,36296.28
1811,23872,36316.33
1812,23880,36336.39
1813,23872,36356.44
1814,23840,36376.49
1815,23796,36396.55
1816,23748,36416.60
1817,23708,36436.65
1818,23680,36456.71
1819,23668,36476.76
1820,23664,36496.81
1821,23668,36516.86
1822,23676,36536.92
1823,23688,36556.97
1824,23700,36577.02
1825,23712,36597.08
1826,23724,36617.13
1827,23732,36637.18
1828,23736,36657.24
1829,23736,36677.29
1830,23732,36697.34
1831,23732,36717.40
1832,23732,36737.45
1833,23732,36757.50
1834,23740,36777.56
1835,23748,36797.61
1836,23760,36817.66
1837,23772,36837.72
1838,23784,36857.77
1839,23796,36877.82
1840,23812,36897.88
1841,23824,36917.93
1842,23836,36937.98
1843,23848,36958.03
1844,23860,36978.09
1845,23868,36998.14
1846,23856,37018.19
1847,23816,37038.25
1848,23772,37058.30
1849,23724,37078.35
1850,23684,37098.41
1851,23660,37118.46
1852,23652,37138.51
1853,23648,37158.57
1854,23652,37178.62
1855,23664,37198.67
1856,23672,37218.73
1857,23684,37238.78
1858,23692,37258.83
1859,23700,37278.89
1860,23700,37298.94
1861,23692,37318.99
1862,23688,37339.05
1863,23684,37359.10
1864,23680,37379.15
1865,23680,37399.21
1866,23684,37419.26
1867,23692,37439.31
1868,23700,37459.36
1869,23716,37479.42
1870,23728,37499.47
1871,23736,37519.52
1872,23748,37539.58
1873,23756,37559.63
1874,23764,37579.68
1875,23768,37599.74
1876,23772,37619.79
1877,23764,37639.84
1878,23740,37659.90
1879,23692,37679.95
1880,23632,37700.00
1881,23580,37720.06
1882,23544,37740.11
1883,23528,37760.16
1884,23524,37780.22
1885,23528,37800.27
1886,23536,37820.32
1887,23548,37840.38
1888,23564,37860.43
1889,23576,37880.48
1890,23588,37900.53
1891,23600,37920.59
1892,23608,37940.64
1893,23612,37960.69
1894,23620,37980.75
1895,23616,38000.80
1896,23624,38020.85
1897,23632,38040.91
1898,23640,38060.96
1899,23652,38081.01
1900,23668,38101.07
1901,23688,38121.12
1902,23704,38141.17
1903,23724,38161.23
1904,23740,38181.28
1905,23752,38201.33
1906,23772,38221.39
1907,23788,38241.44
1908,23800,38261.49
1909,23812,38281.55
1910,23812,38301.60
1911,23796,38321.65
1912,23752,38341.71
1913,23700,38361.76
1914,23652,38381.81
1915,23616,38401.86
1916,23600,38421.92
1917,23596,38441.97
1918,23600,38462.02
1919,23612,38482.08
1920,23620,38502.13
1921,23640,38522.18
1922,23656,38542.24
1923,23672,38562.29
1924,23684,38582.34
1925,23696,38602.40
1926,23700,38622.45
1927,23704,38642.50
1928,23704,38662.56
1929,23712,38682.61
1930,23720,38702.66
1931,23732,38722.72
1932,23744,38742.77
1933,23760,38762.82
1934,23776,38782.88
1935,23788,38802.93
1936,23804,38822.98
1937,23824,38843.04
1938,23840,38863.09
1939,23856,38883.14
1940,23872,38903.19
1941,23880,38923.25
1942,23900,38943.30
1943,23912,38963.35
1944,23912,38983.41
1945,23888,39003.46
1946,23844,39023.51
1947,23792,39043.57
1948,23740,39063.62
1949,23708,39083.67
1950,23692,39103.73
1951,23688,39123.78
1952,23692,39143.83
1953,23704,39163.89
1954,23720,39183.94
1955,23740,39203.99
1956,23756,39224.05
1957,23772,39244.10
1958,23780,39264.15
1959,23784,39284.21
1960,23784,39304.26
1961,23784,39324.31
1962,23780,39344.36
1963,23784,39364.42
1964,23792,39384.47
1965,23796,39404.52
1966,23812,39424.58
1967,23824,39444.63
1968,23836,39464.68
1969,23848,39484.74
1970,23860,39504.79
1971,23872,39524.84
1972,23888,39544.90
1973,23900,39564.95
1974,23916,39585.00
1975,23916,39605.06
1976,23892,39625.11
1977,23844,39645.16
1978,23784,39665.22
1979,23728,39685.27
1980,23688,39705.32
1981,23660,39725.38
1982,23648,39745.43
1983,23648,39765.48
1984,23656,39785.54
1985,23664,39805.59
1986,23680,39825.64
1987,23692,39845.69
1988,23700,39865.75
1989,23708,39885.80
1990,23704,39905.85
1991,23700,39925.91
1992,23700,39945.96
1993,23696,39966.01
1994,23700,39986.07
1995,23704,40006.12
1996,23716,40026.17
1997,23732,40046.23
1998,23744,40066.28
1999,23760,40086.33
2000,23776,40106.39
2001,23792,40126.44
2002,23808,40146.49
2003,23824,40166.55
2004,23840,40186.60
2005,23856,40206.65
2006,23868,40226.71
2007,23852,40246.76
2008,23812,40266.81
2009,23748,40286.86
2010,23688,40306.92
2011,23640,40326.97
2012,23612,40347.02
2013,23604,40367.08
2014,23608,40387.13
2015,23620,40407.18
2016,23632,40427.24
2017,23644,40447.29
2018,23660,40467.34
2019,23672,40487.40
2020,23680,40507.45
2021,23684,40527.50
2022,23688,40547.56
2023,23692,40567.61
2024,23692,40587.66
2025,23700,40607.72
2026,23708,40627.77
2027,23720,40647.82
2028,23736,40667.88
2029,23752,40687.93
2030,23768,40707.98
2031,23784,40728.04
2032,23800,40748.09
2033,23824,40768.14
2034,23844,40788.19
2035,23860,40808.25
2036,23880,40828.30
2037,23900,40848.35
2038,23900,40868.41
2039,23880,40888.46
2040,23840,40908.51
2041,23784,40928.57
2042,23728,40948.62
2043,23696,40968.67
2044,23676,40988.73
2045,23676,41008.78
2046,23680,41028.83
2047,23692,41048.89
2048,23712,41068.94
2049,23728,41088.99
2050,23744,41109.05
2051,23760,41129.10
2052,23772,41149.15
2053,23780,41169.21
2054,23788,41189.26
2055,23792,41209.31
2056,23796,41229.37
2057,23808,41249.42
2058,23820,41269.47
2059,23832,41289.52
2060,23844,41309.58
2061,23860,41329.63
2062,23876,41349.68
2063,23888,41369.74
2064,23904,41389.79
2065,23920,41409.84
2066,23936,41429.90
2067,23952,41449.95
2068,23968,41470.00
2069,23980,41490.06
2070,23976,41510.11
2071,23944,41530.16
2072,23892,41550.22
2073,23836,41570.27
2074,23788,41590.32
2075,23756,41610.38
2076,23736,41630.43
2077,23736,41650.48
2078,23744,41670.54
2079,23756,41690.59
2080,23772,41710.64
2081,23792,41730.69
2082,23804,41750.75
2083,23816,41770.80
2084,23824,41790.85
2085,23824,41810.91
2086,23820,41830.96
2087,23820,41851.01
2088,23816,41871.07
2089,23820,41891.12
2090,23824,41911.17
2091,23836,41931.23
2092,23840,41951.28
2093,23852,41971.33
2094,23864,41991.39
2095,23880,42011.44
2096,23892,42031.49
2097,23904,42051.55
2098,23916,42071.60
2099,23924,42091.65
2100,23912,42111.71
2101,23872,42131.76
2102,23812,42151.81
2103,23752,42171.87
2104,23700,42191.92
2105,23664,42211.97
2106,23644,42232.02
2107,23640,42252.08
2108,23644,42272.13
2109,23656,42292.18
2110,23664,42312.24
2111,23676,42332.29
2112,23684,42352.34
2113,23688,42372.40
2114,23688,42392.45
2115,23680,42412.50
2116,23676,42432.56
2117,23672,42452.61
2118,23668,42472.66
2119,23672,42492.72
2120,23684,42512.77
2121,23692,42532.82
2122,23704,42552.88
2123,23720,42572.93
2124,23732,42592.98
2125,23748,42613.04
2126,23760,42633.09
2127,23772,42653.14
2128,23788,42673.19
2129,23804,42693.25
2130,23796,42713.30
2131,23760,42733.35
2132,23708,42753.41
2133,23648,42773.46
2134,23596,42793.51
2135,23564,42813.57
2136,23552,42833.62
2137,23556,42853.67
2138,23568,42873.73
2139,23580,42893.78
2140,23596,42913.83
2141,23612,42933.89
2142,23628,42953.94
2143,23640,42973.99
2144,23648,42994.05
2145,23656,43014.10
2146,23660,43034.15
2147,23664,43054.21
2148,23664,43074.26
2149,23664,43094.31
2150,23676,43114.37
2151,23688,43134.42
2152,23704,43154.47
2153,23720,43174.52
2154,23740,43194.58
2155,23752,43214.63
2156,23768,43234.68
2157,23784,43254.74
2158,23800,43274.79
2159,23820,43294.84
2160,23836,43314.90
2161,23828,43334.95
2162,23800,43355.00
2163,23744,43375.06
2164,23684,43395.11
2165,23636,43415.16
2166,23604,43435.22
2167,23592,43455.27
2168,23596,43475.32
2169,23604,43495.38
2170,23620,43515.43
2171,23636,43535.48
2172,23656,43555.54
2173,23676,43575.59
2174,23688,43595.64
2175,23692,43615.69
2176,23696,43635.75
2177,23696,43655.80
2178,23696,43675.85
2179,23704,43695.91
2180,23712,43715.96
2181,23720,43736.01
2182,23736,43756.07
2183,23748,43776.12
2184,23772,43796.17
2185,23788,43816.23
2186,23804,43836.28
2187,23820,43856.33
2188,23844,43876.39
2189,23856,43896.44
2190,23876,43916.49
2191,23892,43936.55
2192,23904,43956.60
2193,23896,43976.65
2194,23860,43996.71
2195,23804,44016.76
2196,23744,44036.81
2197,23696,44056.87
2198,23672,44076.92
2199,23656,44096.97
2200,23656,44117.02
2201,23668,44137.08
2202,23684,44157.13
2203,23704,44177.18
2204,23720,44197.24
2205,23740,44217.29
2206,23752,44237.34
2207,23760,44257.40
2208,23760,44277.45
2209,23760,44297.50
2210,23756,44317.56
2211,23756,44337.61
2212,23764,44357.66
2213,23772,44377.72
2214,23780,44397.77
2215,23800,44417.82
2216,23812,44437.88
2217,23828,44457.93
2218,23844,44477.98
2219,23860,44498.04
2220,23872,44518.09
2221,23888,44538.14
2222,23896,44558.20
2223,23888,44578.25
2224,23852,44598.30
2225,23800,44618.35
2226,23736,44638.41
2227,23680,44658.46
2228,23640,44678.51
2229,23620,44698.57
2230,23612,44718.62
2231,23616,44738.67
2232,23628,44758.73
2233,23640,44778.78
2234,23656,44798.83
2235,23668,44818.89
2236,23676,44838.94
2237,23676,44858.99
2238,23668,44879.05
2239,23656,44899.10
2240,23648,44919.15
2241,23640,44939.21
2242,23640,44959.26
2243,23648,44979.31
2244,23660,44999.37
2245,23672,45019.42
2246,23688,45039.47
2247,23700,45059.52
2248,23712,45079.58
2249,23728,45099.63
2250,23740,45119.68
2251,23756,45139.74
2252,23768,45159.79
2253,23764,45179.84
2254,23732,45199.90
2255,23676,45219.95
2256,23612,45240.00
2257,23552,45260.06
2258,23512,45280.11
2259,23492,45300.16
2260,23492,45320.22
2261,23504,45340.27
2262,23516,45360.32
2263,23532,45380.38
2264,23552,45400.43
2265,23568,45420.48
2266,23584,45440.54
2267,23592,45460.59
2268,23592,45480.64
2269,23592,45500.70
2270,23588,45520.75
2271,23588,45540.80
2272,23592,45560.85
2273,23600,45580.91
2274,23612,45600.96
2275,23620,45621.01
2276,23636,45641.07
2277,23652,45661.12
2278,23668,45681.17
2279,23684,45701.23
2280,23700,45721.28
2281,23716,45741.33
2282,23732,45761.39
2283,23748,45781.44
2284,23756,45801.49
2285,23744,45821.55
2286,23700,45841.60
2287,23636,45861.65
2288,23576,45881.71
2289,23528,45901.76
2290,23504,45921.81
2291,23492,45941.87
2292,23500,45961.92
2293,23512,45981.97
2294,23528,46002.02
2295,23548,46022.08
2296,23564,46042.13
2297,23584,46062.18
2298,23596,46082.24
2299,23608,46102.29
2300,23612,46122.34
2301,23616,46142.40
2302,23608,46162.45
2303,23604,46182.50
2304,23608,46202.56
2305,23612,46222.61
2306,23620,46242.66
2307,23632,46262.72
2308,23648,46282.77
2309,23664,46302.82
2310,23684,46322.88
2311,23700,46342.93
2312,23712,46362.98
2313,23728,46383.04
2314,23748,46403.09
2315,23760,46423.14
2316,23776,46443.20
2317,23776,46463.25
2318,23748,46483.30
2319,23692,46503.35
2320,23632,46523.41
2321,23580,46543.46
2322,23544,46563.51
2323,23524,46583.57
2324,23520,46603.62
2325,23528,46623.67
2326,23544,46643.73
2327,23564,46663.78
2328,23584,46683.83
2329,23604,46703.89
2330,23620,46723.94
2331,23632,46743.99
2332,23636,46764.05
2333,23636,46784.10
2334,23632,46804.15
2335,23636,46824.21
2336,23636,46844.26
2337,23640,46864.31
2338,23652,46884.37
2339,23664,46904.42
2340,23680,46924.47
2341,23696,46944.53
2342,23712,46964.58
2343,23732,46984.63
2344,23748,47004.68
2345,23764,47024.74
2346,23780,47044.79
2347,23792,47064.84
2348,23792,47084.90
2349,23768,47104.95
2350,23716,47125.00
2351,23648,47145.06
2352,23592,47165.11
2353,23548,47185.16
2354,23528,47205.22
2355,23524,47225.27
2356,23528,47245.32
2357,23540,47265.38
2358,23552,47285.43
2359,23572,47305.48
2360,23588,47325.54
2361,23600,47345.59
2362,23608,47365.64
2363,23608,47385.70
2364,23604,47405.75
2365,23596,47425.80
2366,23592,47445.85
2367,23588,47465.91
2368,23592,47485.96
2369,23592,47506.01
2370,23604,47526.07
2371,23616,47546.12
2372,23632,47566.17
2373,23644,47586.23
2374,23660,47606.28
2375,23672,47626.33
2376,23684,47646.39
2377,23696,47666.44
2378,23704,47686.49
2379,23680,47706.55
2380,23632,47726.60
2381,23568,47746.65
2382,23504,47766.71
2383,23452,47786.76
2384,23432,47806.81
2385,23428,47826.87
2386,23436,47846.92
2387,23448,47866.97
2388,23468,47887.03
2389,23492,47907.08
2390,23512,47927.13
2391,23528,47947.18
2392,23544,47967.24
2393,23552,47987.29
2394,23556,48007.34
2395,23556,48027.40
2396,23556,48047.45
2397,23560,48067.50
2398,23568,48087.56
2399,23576,48107.61
2400,23592,48127.66
2401,23608,48147.72
2402,23628,48167.77
2403,23644,48187.82
2404,23660,48207.88
2405,23676,48227.93
2406,23696,48247.98
2407,23708,48268.04
2408,23720,48288.09
2409,23732,48308.14
2410,23740,48328.20
2411,23712,48348.25
2412,23668,48368.30
2413,23608,48388.35
2414,23556,48408.41
2415,23520,48428.46
2416,23508,48448.51
2417,23508,48468.57
2418,23520,48488.62
2419,23536,48508.67
2420,23556,48528.73
2421,23576,48548.78
2422,23600,48568.83
2423,23620,48588.89
2424,23628,48608.94
2425,23640,48628.99
2426,23644,48649.05
2427,23648,48669.10
2428,23652,48689.15
2429,23656,48709.21
2430,23664,48729.26
2431,23680,48749.31
2432,23696,48769.37
2433,23712,48789.42
2434,23732,48809.47
2435,23752,48829.53
2436,23772,48849.58
2437,23792,48869.63
2438,23808,48889.68
2439,23832,48909.74
2440,23848,48929.79
2441,23868,48949.84
2442,23888,48969.90
2443,23900,48989.95
2444,23896,49010.00
2445,23868,49030.06
2446,23820,49050.11
2447,23768,49070.16
2448,23728,49090.22
2449,23704,49110.27
2450,23696,49130.32
2451,23696,49150.38
2452,23712,49170.43
2453,23728,49190.48
2454,23744,49210.54
2455,23768,49230.59
2456,23788,49250.64
2457,23800,49270.70
2458,23812,49290.75
2459,23820,49310.80
2460,23824,49330.86
2461,23824,49350.91
2462,23832,49370.96
2463,23836,49391.01
2464,23844,49411.07
2465,23860,49431.12
2466,23876,49451.17
2467,23888,49471.23
2468,23908,49491.28
2469,23924,49511.33
2470,23944,49531.39
2471,23956,49551.44
2472,23972,49571.49
2473,23988,49591.55
2474,24004,49611.60
2475,24020,49631.65
2476,24020,49651.71
2477,23996,49671.76
2478,23952,49691.81
2479,23896,49711.87
2480,23852,49731.92
2481,23812,49751.97
2482,23796,49772.03
2483,23788,49792.08
2484,23792,49812.13
2485,23800,49832.18
2486,23820,49852.24
2487,23840,49872.29
2488,23860,49892.34
2489,23876,49912.40
2490,23880,49932.45
2491,23880,49952.50
2492,23880,49972.56
2493,23876,49992.61
2494,23876,50012.66
2495,23876,50032.72
2496,23880,50052.77
2497,23888,50072.82
2498,23900,50092.88
2499,23912,50112.93
2500,23920,50132.98
2501,23928,50153.04
2502,23940,50173.09
2503,23944,50193.14
2504,23952,50213.20
2505,23960,50233.25
2506,23968,50253.30
2507,23968,50273.36
2508,23944,50293.41
2509,23900,50313.46
2510,23848,50333.51
2511,23796,50353.57
2512,23760,50373.62
2513,23740,50393.67
2514,23732,50413.73
2515,23740,50433.78
2516,23752,50453.83
2517,23772,50473.89
2518,23788,50493.94
2519,23808,50513.99
2520,23824,50534.05
2521,23836,50554.10
2522,23844,50574.15
2523,23852,50594.21
2524,23852,50614.26
2525,23852,50634.31
2526,23860,50654.37
2527,23868,50674.42
2528,23876,50694.47
2529,23892,50714.53
2530,23908,50734.58
2531,23924,50754.63
2532,23940,50774.68
2533,23956,50794.74
2534,23972,50814.79
2535,23988,50834.84
2536,24004,50854.90
2537,24020,50874.95
2538,24036,50895.00
2539,24048,50915.06
2540,24040,50935.11
2541,24012,50955.16
2542,23968,50975.22
2543,23920,50995.27
2544,23884,51015.32
2545,23864,51035.38
2546,23852,51055.43
2547,23860,51075.48
2548,23872,51095.54
2549,23884,51115.59
2550,23900,51135.64
2551,23920,51155.70
2552,23936,51175.75
2553,23948,51195.80
2554,23956,51215.86
2555,23964,51235.91
2556,23972,51255.96
2557,23976,51276.01
2558,23984,51296.07
2559,23996,51316.12
2560,24012,51336.17
2561,24028,51356.23
2562,24044,51376.28
2563,24056,51396.33
2564,24076,51416.39
2565,24092,51436.44
2566,24108,51456.49
2567,24128,51476.55
2568,24144,51496.60
2569,24160,51516.65
2570,24176,51536.71
2571,24188,51556.76
2572,24200,51576.81
2573,24200,51596.87
2574,24180,51616.92
2575,24144,51636.97
2576,24104,51657.03
2577,24072,51677.08
2578,24052,51697.13
2579,24040,51717.19
2580,24048,51737.24
2581,24060,51757.29
2582,24072,51777.34
2583,24088,51797.40
2584,24108,51817.45
2585,24124,51837.50
2586,24136,51857.56
2587,24144,51877.61
2588,24144,51897.66
2589,24148,51917.72
2590,24148,51937.77
2591,24148,51957.82
2592,24152,51977.88
2593,24160,51997.93
2594,24168,52017.98
2595,24176,52038.04
2596,24188,52058.09
2597,24200,52078.14
2598,24212,52098.20
2599,24224,52118.25
2600,24236,52138.30
2601,24248,52158.36
2602,24264,52178.41
2603,24276,52198.46
2604,24280,52218.51
2605,24264,52238.57
2606,24240,52258.62
2607,24204,52278.67
2608,24164,52298.73
2609,24136,52318.78
2610,24116,52338.83
2611,24108,52358.89
2612,24112,52378.94
2613,24120,52398.99
2614,24136,52419.05
2615,24152,52439.10
2616,24168,52459.15
2617,24180,52479.21
2618,24188,52499.26
2619,24192,52519.31
2620,24196,52539.37
2621,24200,52559.42
2622,24200,52579.47
2623,24204,52599.53
2624,24208,52619.58
2625,24216,52639.63
2626,24228,52659.69
2627,24232,52679.74
2628,24244,52699.79
2629,24252,52719.84
2630,24264,52739.90
2631,24272,52759.95
2632,24276,52780.00
2633,24276,52800.06
2634,24260,52820.11
2635,24228,52840.16
2636,24192,52860.22
2637,24148,52880.27
2638,24104,52900.32
2639,24072,52920.38
2640,24052,52940.43
2641,24044,52960.48
2642,24048,52980.54
2643,24052,53000.59
2644,24064,53020.64
2645,24080,53040.70
2646,24092,53060.75
2647,24104,53080.80
2648,24116,53100.86
2649,24116,53120.91
2650,24120,53140.96
2651,24120,53161.01
2652,24124,53181.07
2653,24128,53201.12
2654,24136,53221.17
2655,24148,53241.23
2656,24160,53261.28
2657,24168,53281.33
2658,24184,53301.39
2659,24196,53321.44
2660,24216,53341.49
2661,24224,53361.55
2662,24240,53381.60
2663,24252,53401.65
2664,24256,53421.71
2665,24248,53441.76
2666,24220,53461.81
2667,24176,53481.87
2668,24132,53501.92
2669,24096,53521.97
2670,24068,53542.03
2671,24052,53562.08
2672,24056,53582.13
2673,24060,53602.19
2674,24064,53622.24
2675,24072,53642.29
2676,24088,53662.34
2677,24100,53682.40
2678,24108,53702.45
2679,24116,53722.50
2680,24120,53742.56
2681,24120,53762.61
2682,24116,53782.66
2683,24120,53802.72
2684,24120,53822.77
2685,24124,53842.82
2686,24132,53862.88
2687,24148,53882.93
2688,24160,53902.98
2689,24172,53923.04
2690,24184,53943.09
2691,24196,53963.14
2692,24208,53983.20
2693,24220,54003.25
2694,24236,54023.30
2695,24236,54043.36
2696,24220,54063.41
2697,24192,54083.46
2698,24152,54103.51
2699,24112,54123.57
2700,24080,54143.62
2701,24068,54163.67
2702,24060,54183.73
2703,24064,54203.78
2704,24076,54223.83
2705,24088,54243.89
2706,24108,54263.94
2707,24120,54283.99
2708,24140,54304.05
2709,24152,54324.10
2710,24160,54344.15
2711,24164,54364.21
2712,24168,54384.26
2713,24172,54404.31
2714,24176,54424.37
2715,24180,54444.42
2716,24188,54464.47
2717,24196,54484.53
2718,24204,54504.58
2719,24216,54524.63
2720,24228,54544.69
2721,24244,54564.74
2722,24256,54584.79
2723,24268,54604.84
2724,24280,54624.90
2725,24288,54644.95
2726,24280,54665.00
2727,24256,54685.06
2728,24220,54705.11
2729,24172,54725.16
2730,24136,54745.22
2731,24108,54765.27
2732,24096,54785.32
2733,24092,54805.38
2734,24092,54825.43
2735,24100,54845.48
2736,24112,54865.54
2737,24128,54885.59
2738,24136,54905.64
2739,24144,54925.70
2740,24152,54945.75
2741,24152,54965.80
2742,24152,54985.86
2743,24152,55005.91
2744,24148,55025.96
2745,24152,55046.02
2746,24152,55066.07
2747,24156,55086.12
2748,24164,55106.17
2749,24172,55126.23
2750,24180,55146.28
2751,24192,55166.33
2752,24200,55186.39
2753,24208,55206.44
2754,24212,55226.49
2755,24204,55246.55
2756,24180,55266.60
2757,24132,55286.65
2758,24076,55306.71
2759,24032,55326.76
2760,23992,55346.81
2761,23972,55366.87
2762,23968,55386.92
2763,23968,55406.97
2764,23980,55427.03
2765,23992,55447.08
2766,24004,55467.13
2767,24020,55487.19
2768,24028,55507.24
2769,24036,55527.29
2770,24036,55547.34
2771,24036,55567.40
2772,24032,55587.45
2773,24032,55607.50
2774,24040,55627.56
2775,24048,55647.61
2776,24056,55667.66
2777,24068,55687.72
2778,24080,55707.77
2779,24096,55727.82
2780,24108,55747.88
2781,24124,55767.93
2782,24144,55787.98
2783,24156,55808.04
2784,24164,55828.09
2785,24152,55848.14
2786,24120,55868.20
2787,24072,55888.25
2788,24024,55908.30
2789,23984,55928.36
2790,23960,55948.41
2791,23956,55968.46
2792,23956,55988.52
2793,23968,56008.57
2794,23984,56028.62
2795,23996,56048.67
2796,24012,56068.73
2797,24024,56088.78
2798,24032,56108.83
2799,24036,56128.89
2800,24040,56148.94
2801,24040,56168.99
2802,24044,56189.05
2803,24048,56209.10
2804,24056,56229.15
2805,24064,56249.21
2806,24076,56269.26
2807,24088,56289.31
2808,24104,56309.37
2809,24116,56329.42
2810,24132,56349.47
2811,24148,56369.53
2812,24168,56389.58
2813,24180,56409.63
2814,24196,56429.69
2815,24196,56449.74
2816,24176,56469.79
2817,24140,56489.84
2818,24096,56509.90
2819,24056,56529.95
2820,24032,56550.00
2821,24016,56570.06
2822,24012,56590.11
2823,24020,56610.16
2824,24032,56630.22
2825,24044,56650.27
2826,24060,56670.32
2827,24072,56690.38
2828,24088,56710.43
2829,24092,56730.48
2830,24096,56750.54
2831,24100,56770.59
2832,24100,56790.64
2833,24104,56810.70
2834,24108,56830.75
2835,24120,56850.80
2836,24128,56870.86
2837,24140,56890.91
2838,24152,56910.96
2839,24164,56931.02
2840,24176,56951.07
2841,24188,56971.12
2842,24204,56991.17
2843,24216,57011.23
2844,24224,57031.28
2845,24240,57051.33
2846,24240,57071.39
2847,24224,57091.44
2848,24188,57111.49
2849,24140,57131.55
2850,24092,57151.60
2851,24056,57171.65
2852,24036,57191.71
2853,24028,57211.76
2854,24028,57231.81
2855,24036,57251.87
2856,24048,57271.92
2857,24064,57291.97
2858,24076,57312.03
2859,24088,57332.08
2860,24096,57352.13
2861,24100,57372.19
2862,24100,57392.24
2863,24096,57412.29
2864,24092,57432.35
2865,24096,57452.40
2866,24100,57472.45
2867,24104,57492.50
2868,24116,57512.56
2869,24124,57532.61
2870,24132,57552.66
2871,24144,57572.72
2872,24152,57592.77
2873,24164,57612.82
2874,24176,57632.88
2875,24184,57652.93
2876,24176,57672.98
2877,24144,57693.04
2878,24092,57713.09
2879,24032,57733.14
2880,23984,57753.20
2881,23948,57773.25
2882,23928,57793.30
2883,23920,57813.36
2884,23920,57833.41
2885,23932,57853.46
2886,23940,57873.52
2887,23956,57893.57
2888,23964,57913.62
2889,23976,57933.67
2890,23980,57953.73
2891,23980,57973.78
2892,23980,57993.83
2893,23976,58013.89
2894,23980,58033.94
2895,23992,58053.99
2896,24000,58074.05
2897,24016,58094.10
2898,24028,58114.15
2899,24048,58134.21
2900,24064,58154.26
2901,24080,58174.31
2902,24096,58194.37
2903,24112,58214.42
2904,24128,58234.47
2905,24140,58254.53
2906,24132,58274.58
2907,24100,58294.63
2908,24048,58314.69
2909,23996,58334.74
2910,23952,58354.79
2911,23928,58374.85
2912,23916,58394.90
2913,23916,58414.95
2914,23924,58435.00
2915,23936,58455.06
2916,23952,58475.11
2917,23964,58495.16
2918,23980,58515.22
2919,23992,58535.27
2920,24000,58555.32
2921,24004,58575.38
2922,24000,58595.43
2923,24000,58615.48
2924,24000,58635.54
2925,24008,58655.59
2926,24012,58675.64
2927,24024,58695.70
2928,24032,58715.75
2929,24048,58735.80
2930,24060,58755.86
2931,24072,58775.91
2932,24088,58795.96
2933,24100,58816.02
2934,24112,58836.07
2935,24128,58856.12
2936,24128,58876.17
2937,24108,58896.23
2938,24068,58916.28
2939,24016,58936.33
2940,23972,58956.39
2941,23936,58976.44
2942,23916,58996.49
2943,23912,59016.55
2944,23920,59036.60
2945,23928,59056.65
2946,23940,59076.71
2947,23956,59096.76
2948,23972,59116.81
2949,23984,59136.87
2950,23996,59156.92
2951,24004,59176.97
2952,24012,59197.03
2953,24012,59217.08
2954,24016,59237.13
2955,24020,59257.19
2956,24028,59277.24
2957,24036,59297.29
2958,24048,59317.35
2959,24060,59337.40
2960,24076,59357.45
2961,24096,59377.50
2962,24112,59397.56
2963,24128,59417.61
2964,24140,59437.66
2965,24156,59457.72
2966,24164,59477.77
2967,24160,59497.82
2968,24128,59517.88
2969,24084,59537.93
2970,24036,59557.98
2971,23996,59578.04
2972,23972,59598.09
2973,23956,59618.14
2974,23956,59638.20
2975,23964,59658.25
2976,23980,59678.30
2977,23992,59698.36
2978,24012,59718.41
2979,24028,59738.46
2980,24044,59758.52
2981,24056,59778.57
2982,24064,59798.62
2983,24064,59818.68
2984,24064,59838.73
2985,24064,59858.78
2986,24064,59878.83
2987,24068,59898.89
2988,24072,59918.94
2989,24084,59938.99
2990,24092,59959.05
2991,24104,59979.10
2992,24116,59999.15
2993,24132,60019.21
2994,24144,60039.26
2995,24156,60059.31
2996,24152,60079.37
2997,24120,60099.42
2998,24080,60119.47
2999,24024,60139.53
