Sample_Index,IR_Value,Timestamp_ms
0,22436,0.00
1,22440,22.78
2,22436,45.55
3,22432,68.33
4,22424,91.11
5,22416,113.89
6,22412,136.66
7,22408,159.44
8,22412,182.22
9,22424,204.99
10,22428,227.77
11,22444,250.55
12,22456,273.33
13,22468,296.10
14,22484,318.88
15,22488,341.66
16,22492,364.43
17,22496,387.21
18,22500,409.99
19,22512,432.77
20,22516,455.54
21,22524,478.32
22,22536,501.10
23,22540,523.87
24,22552,546.65
25,22560,569.43
26,22572,592.21
27,22588,614.98
28,22596,637.76
29,22608,660.54
30,22624,683.31
31,22636,706.09
32,22656,728.87
33,22668,751.65
34,22676,774.42
35,22684,797.20
36,22684,819.98
37,22668,842.75
38,22664,865.53
39,22656,888.31
40,22652,911.09
41,22652,933.86
42,22652,956.64
43,22656,979.42
44,22660,1002.19
45,22664,1024.97
46,22668,1047.75
47,22672,1070.53
48,22672,1093.30
49,22668,1116.08
50,22672,1138.86
51,22668,1161.63
52,22668,1184.41
53,22672,1207.19
54,22668,1229.97
55,22676,1252.74
56,22684,1275.52
57,22688,1298.30
58,22688,1321.07
59,22700,1343.85
60,22704,1366.63
61,22712,1389.41
62,22720,1412.18
63,22724,1434.96
64,22732,1457.74
65,22736,1480.52
66,22744,1503.29
67,22748,1526.07
68,22756,1548.85
69,22760,1571.62
70,22764,1594.40
71,22768,1617.18
72,22764,1639.96
73,22756,1662.73
74,22744,1685.51
75,22736,1708.29
76,22732,1731.06
77,22728,1753.84
78,22724,1776.62
79,22728,1799.40
80,22728,1822.17
81,22732,1844.95
82,22732,1867.73
83,22740,1890.50
84,22740,1913.28
85,22740,1936.06
86,22744,1958.84
87,22740,1981.61
88,22740,2004.39
89,22740,2027.17
90,22740,2049.94
91,22736,2072.72
92,22740,2095.50
93,22740,2118.28
94,22744,2141.05
95,22748,2163.83
96,22748,2186.61
97,22752,2209.38
98,22760,2232.16
99,22760,2254.94
100,22768,2277.72
101,22768,2300.49
102,22772,2323.27
103,22780,2346.05
104,22780,2368.82
105,22784,2391.60
106,22788,2414.38
107,22796,2437.16
108,22796,2459.93
109,22800,2482.71
110,22796,2505.49
111,22784,2528.26
112,22772,2551.04
113,22760,2573.82
114,22744,2596.60
115,22744,2619.37
116,22740,2642.15
117,22740,2664.93
118,22736,2687.70
119,22740,2710.48
120,22740,2733.26
121,22748,2756.04
122,22752,2778.81
123,22756,2801.59
124,22760,2824.37
125,22756,2847.14
126,22764,2869.92
127,22756,2892.70
128,22756,2915.48
129,22756,2938.25
130,22756,2961.03
131,22756,2983.81
132,22756,3006.58
133,22760,3029.36
134,22760,3052.14
135,22760,3074.92
136,22760,3097.69
137,22764,3120.47
138,22764,3143.25
139,22764,3166.02
140,22768,3188.80
141,22768,3211.58
142,22772,3234.36
143,22772,3257.13
144,22776,3279.91
145,22780,3302.69
146,22788,3325.46
147,22792,3348.24
148,22796,3371.02
149,22804,3393.80
150,22808,3416.57
151,22812,3439.35
152,22824,3462.13
153,22828,3484.90
154,22832,3507.68
155,22840,3530.46
156,22852,3553.24
157,22860,3576.01
158,22864,3598.79
159,22872,3621.57
160,22860,3644.34
161,22848,3667.12
162,22832,3689.90
163,22816,3712.68
164,22808,3735.45
165,22804,3758.23
166,22804,3781.01
167,22804,3803.78
168,22804,3826.56
169,22804,3849.34
170,22804,3872.12
171,22804,3894.89
172,22804,3917.67
173,22804,3940.45
174,22804,3963.22
175,22800,3986.00
176,22796,4008.78
177,22796,4031.56
178,22800,4054.33
179,22800,4077.11
180,22804,4099.89
181,22808,4122.66
182,22808,4145.44
183,22812,4168.22
184,22816,4191.00
185,22820,4213.77
186,22824,4236.55
187,22828,4259.33
188,22836,4282.10
189,22840,4304.88
190,22848,4327.66
191,22848,4350.44
192,22852,4373.21
193,22860,4395.99
194,22868,4418.77
195,22872,4441.55
196,22884,4464.32
197,22892,4487.10
198,22900,4509.88
199,22904,4532.65
200,22908,4555.43
201,22916,4578.21
202,22924,4600.99
203,22928,4623.76
204,22932,4646.54
205,22936,4669.32
206,22936,4692.09
207,22924,4714.87
208,22912,4737.65
209,22892,4760.43
210,22880,4783.20
211,22868,4805.98
212,22860,4828.76
213,22856,4851.53
214,22856,4874.31
215,22848,4897.09
216,22848,4919.87
217,22852,4942.64
218,22852,4965.42
219,22852,4988.20
220,22848,5010.97
221,22848,5033.75
222,22848,5056.53
223,22844,5079.31
224,22844,5102.08
225,22844,5124.86
226,22848,5147.64
227,22848,5170.41
228,22852,5193.19
229,22856,5215.97
230,22860,5238.75
231,22868,5261.52
232,22872,5284.30
233,22876,5307.08
234,22884,5329.85
235,22888,5352.63
236,22896,5375.41
237,22904,5398.19
238,22908,5420.96
239,22912,5443.74
240,22916,5466.52
241,22924,5489.29
242,22928,5512.07
243,22932,5534.85
244,22936,5557.63
245,22940,5580.40
246,22948,5603.18
247,22952,5625.96
248,22960,5648.73
249,22964,5671.51
250,22968,5694.29
251,22972,5717.07
252,22972,5739.84
253,22964,5762.62
254,22952,5785.40
255,22936,5808.17
256,22920,5830.95
257,22908,5853.73
258,22900,5876.51
259,22900,5899.28
260,22900,5922.06
261,22904,5944.84
262,22900,5967.61
263,22900,5990.39
264,22900,6013.17
265,22904,6035.95
266,22900,6058.72
267,22904,6081.50
268,22900,6104.28
269,22896,6127.05
270,22896,6149.83
271,22892,6172.61
272,22888,6195.39
273,22888,6218.16
274,22892,6240.94
275,22896,6263.72
276,22900,6286.49
277,22904,6309.27
278,22912,6332.05
279,22916,6354.83
280,22920,6377.60
281,22928,6400.38
282,22932,6423.16
283,22936,6445.93
284,22940,6468.71
285,22940,6491.49
286,22948,6514.27
287,22956,6537.04
288,22960,6559.82
289,22968,6582.60
290,22972,6605.37
291,22976,6628.15
292,22980,6650.93
293,22976,6673.71
294,22968,6696.48
295,22952,6719.26
296,22936,6742.04
297,22924,6764.81
298,22912,6787.59
299,22904,6810.37
300,22904,6833.15
301,22900,6855.92
302,22900,6878.70
303,22900,6901.48
304,22900,6924.25
305,22900,6947.03
306,22904,6969.81
307,22904,6992.59
308,22904,7015.36
309,22904,7038.14
310,22904,7060.92
311,22904,7083.69
312,22904,7106.47
313,22908,7129.25
314,22908,7152.03
315,22908,7174.80
316,22916,7197.58
317,22920,7220.36
318,22924,7243.13
319,22928,7265.91
320,22936,7288.69
321,22940,7311.47
322,22948,7334.24
323,22952,7357.02
324,22956,7379.80
325,22956,7402.58
326,22960,7425.35
327,22964,7448.13
328,22968,7470.91
329,22976,7493.68
330,22976,7516.46
331,22984,7539.24
332,22988,7562.02
333,22992,7584.79
334,22992,7607.57
335,22984,7630.35
336,22972,7653.12
337,22956,7675.90
338,22936,7698.68
339,22924,7721.46
340,22916,7744.23
341,22904,7767.01
342,22908,7789.79
343,22908,7812.56
344,22904,7835.34
345,22904,7858.12
346,22904,7880.90
347,22904,7903.67
348,22904,7926.45
349,22904,7949.23
350,22904,7972.00
351,22904,7994.78
352,22900,8017.56
353,22904,8040.34
354,22904,8063.11
355,22904,8085.89
356,22912,8108.67
357,22916,8131.44
358,22916,8154.22
359,22920,8177.00
360,22920,8199.78
361,22924,8222.55
362,22924,8245.33
363,22920,8268.11
364,22920,8290.88
365,22920,8313.66
366,22924,8336.44
367,22924,8359.22
368,22928,8381.99
369,22928,8404.77
370,22932,8427.55
371,22936,8450.32
372,22936,8473.10
373,22940,8495.88
374,22944,8518.66
375,22940,8541.43
376,22940,8564.21
377,22936,8586.99
378,22920,8609.76
379,22904,8632.54
380,22888,8655.32
381,22876,8678.10
382,22864,8700.87
383,22852,8723.65
384,22844,8746.43
385,22844,8769.20
386,22840,8791.98
387,22840,8814.76
388,22840,8837.54
389,22844,8860.31
390,22844,8883.09
391,22844,8905.87
392,22844,8928.64
393,22840,8951.42
394,22840,8974.20
395,22840,8996.98
396,22840,9019.75
397,22840,9042.53
398,22848,9065.31
399,22852,9088.08
400,22856,9110.86
401,22864,9133.64
402,22868,9156.42
403,22876,9179.19
404,22884,9201.97
405,22888,9224.75
406,22892,9247.52
407,22900,9270.30
408,22908,9293.08
409,22916,9315.86
410,22920,9338.63
411,22928,9361.41
412,22932,9384.19
413,22936,9406.96
414,22932,9429.74
415,22924,9452.52
416,22908,9475.30
417,22892,9498.07
418,22876,9520.85
419,22864,9543.63
420,22860,9566.40
421,22856,9589.18
422,22856,9611.96
423,22852,9634.74
424,22852,9657.51
425,22856,9680.29
426,22856,9703.07
427,22860,9725.84
428,22860,9748.62
429,22856,9771.40
430,22856,9794.18
431,22856,9816.95
432,22852,9839.73
433,22852,9862.51
434,22856,9885.28
435,22860,9908.06
436,22860,9930.84
437,22864,9953.62
438,22872,9976.39
439,22876,9999.17
440,22880,10021.95
441,22884,10044.72
442,22892,10067.50
443,22896,10090.28
444,22900,10113.06
445,22900,10135.83
446,22908,10158.61
447,22912,10181.39
448,22916,10204.16
449,22912,10226.94
450,22904,10249.72
451,22888,10272.50
452,22872,10295.27
453,22856,10318.05
454,22844,10340.83
455,22836,10363.61
456,22828,10386.38
457,22828,10409.16
458,22820,10431.94
459,22820,10454.71
460,22824,10477.49
461,22824,10500.27
462,22824,10523.05
463,22824,10545.82
464,22820,10568.60
465,22816,10591.38
466,22812,10614.15
467,22808,10636.93
468,22808,10659.71
469,22808,10682.49
470,22812,10705.26
471,22816,10728.04
472,22820,10750.82
473,22828,10773.59
474,22828,10796.37
475,22836,10819.15
476,22840,10841.93
477,22844,10864.70
478,22844,10887.48
479,22848,10910.26
480,22856,10933.03
481,22860,10955.81
482,22868,10978.59
483,22872,11001.37
484,22876,11024.14
485,22880,11046.92
486,22884,11069.70
487,22884,11092.47
488,22876,11115.25
489,22868,11138.03
490,22852,11160.81
491,22832,11183.58
492,22816,11206.36
493,22796,11229.14
494,22792,11251.91
495,22784,11274.69
496,22780,11297.47
497,22772,11320.25
498,22768,11343.02
499,22768,11365.80
500,22768,11388.58
501,22768,11411.35
502,22768,11434.13
503,22768,11456.91
504,22764,11479.69
505,22760,11502.46
506,22756,11525.24
507,22756,11548.02
508,22756,11570.79
509,22756,11593.57
510,22760,11616.35
511,22764,11639.13
512,22772,11661.90
513,22772,11684.68
514,22776,11707.46
515,22780,11730.23
516,22788,11753.01
517,22788,11775.79
518,22796,11798.57
519,22800,11821.34
520,22804,11844.12
521,22804,11866.90
522,22808,11889.67
523,22808,11912.45
524,22812,11935.23
525,22816,11958.01
526,22820,11980.78
527,22820,12003.56
528,22828,12026.34
529,22832,12049.11
530,22836,12071.89
531,22828,12094.67
532,22820,12117.45
533,22804,12140.22
534,22784,12163.00
535,22768,12185.78
536,22752,12208.55
537,22740,12231.33
538,22736,12254.11
539,22732,12276.89
540,22732,12299.66
541,22736,12322.44
542,22740,12345.22
543,22740,12367.99
544,22740,12390.77
545,22736,12413.55
546,22732,12436.33
547,22728,12459.10
548,22724,12481.88
549,22724,12504.66
550,22720,12527.43
551,22724,12550.21
552,22728,12572.99
553,22736,12595.77
554,22736,12618.54
555,22744,12641.32
556,22748,12664.10
557,22756,12686.87
558,22756,12709.65
559,22760,12732.43
560,22764,12755.21
561,22764,12777.98
562,22768,12800.76
563,22772,12823.54
564,22772,12846.31
565,22776,12869.09
566,22780,12891.87
567,22788,12914.65
568,22788,12937.42
569,22780,12960.20
570,22768,12982.98
571,22756,13005.75
572,22740,13028.53
573,22728,13051.31
574,22720,13074.09
575,22720,13096.86
576,22716,13119.64
577,22716,13142.42
578,22716,13165.20
579,22716,13187.97
580,22720,13210.75
581,22720,13233.53
582,22720,13256.30
583,22720,13279.08
584,22716,13301.86
585,22720,13324.64
586,22716,13347.41
587,22716,13370.19
588,22712,13392.97
589,22720,13415.74
590,22724,13438.52
591,22728,13461.30
592,22736,13484.08
593,22740,13506.85
594,22748,13529.63
595,22752,13552.41
596,22756,13575.18
597,22764,13597.96
598,22768,13620.74
599,22772,13643.52
600,22776,13666.29
601,22780,13689.07
602,22788,13711.85
603,22792,13734.62
604,22800,13757.40
605,22808,13780.18
606,22808,13802.96
607,22812,13825.73
608,22804,13848.51
609,22792,13871.29
610,22772,13894.06
611,22760,13916.84
612,22744,13939.62
613,22736,13962.40
614,22732,13985.17
615,22728,14007.95
616,22724,14030.73
617,22720,14053.50
618,22720,14076.28
619,22716,14099.06
620,22712,14121.84
621,22712,14144.61
622,22708,14167.39
623,22704,14190.17
624,22700,14212.94
625,22696,14235.72
626,22692,14258.50
627,22688,14281.28
628,22688,14304.05
629,22692,14326.83
630,22692,14349.61
631,22692,14372.38
632,22700,14395.16
633,22704,14417.94
634,22704,14440.72
635,22708,14463.49
636,22716,14486.27
637,22716,14509.05
638,22720,14531.82
639,22728,14554.60
640,22728,14577.38
641,22732,14600.16
642,22736,14622.93
643,22744,14645.71
644,22748,14668.49
645,22752,14691.26
646,22764,14714.04
647,22764,14736.82
648,22772,14759.60
649,22780,14782.37
650,22780,14805.15
651,22784,14827.93
652,22780,14850.70
653,22768,14873.48
654,22748,14896.26
655,22728,14919.04
656,22712,14941.81
657,22696,14964.59
658,22688,14987.37
659,22684,15010.14
660,22676,15032.92
661,22680,15055.70
662,22676,15078.48
663,22676,15101.25
664,22676,15124.03
665,22680,15146.81
666,22676,15169.58
667,22676,15192.36
668,22668,15215.14
669,22664,15237.92
670,22660,15260.69
671,22660,15283.47
672,22660,15306.25
673,22668,15329.02
674,22668,15351.80
675,22676,15374.58
676,22684,15397.36
677,22692,15420.13
678,22696,15442.91
679,22700,15465.69
680,22704,15488.46
681,22704,15511.24
682,22708,15534.02
683,22712,15556.80
684,22720,15579.57
685,22724,15602.35
686,22728,15625.13
687,22732,15647.90
688,22736,15670.68
689,22736,15693.46
690,22740,15716.24
691,22748,15739.01
692,22752,15761.79
693,22756,15784.57
694,22764,15807.34
695,22760,15830.12
696,22756,15852.90
697,22736,15875.68
698,22716,15898.45
699,22688,15921.23
700,22676,15944.01
701,22660,15966.78
702,22652,15989.56
703,22648,16012.34
704,22644,16035.12
705,22640,16057.89
706,22640,16080.67
707,22640,16103.45
708,22640,16126.23
709,22640,16149.00
710,22628,16171.78
711,22628,16194.56
712,22624,16217.33
713,22624,16240.11
714,22616,16262.89
715,22616,16285.67
716,22616,16308.44
717,22624,16331.22
718,22624,16354.00
719,22628,16376.77
720,22632,16399.55
721,22640,16422.33
722,22644,16445.11
723,22652,16467.88
724,22652,16490.66
725,22656,16513.44
726,22660,16536.21
727,22656,16558.99
728,22660,16581.77
729,22664,16604.55
730,22664,16627.32
731,22664,16650.10
732,22668,16672.88
733,22672,16695.65
734,22672,16718.43
735,22668,16741.21
736,22652,16763.99
737,22624,16786.76
738,22600,16809.54
739,22576,16832.32
740,22564,16855.09
741,22552,16877.87
742,22548,16900.65
743,22544,16923.43
744,22544,16946.20
745,22544,16968.98
746,22552,16991.76
747,22548,17014.53
748,22544,17037.31
749,22540,17060.09
750,22536,17082.87
751,22532,17105.64
752,22528,17128.42
753,22528,17151.20
754,22528,17173.97
755,22532,17196.75
756,22536,17219.53
757,22540,17242.31
758,22544,17265.08
759,22556,17287.86
760,22560,17310.64
761,22568,17333.41
762,22568,17356.19
763,22576,17378.97
764,22584,17401.75
765,22592,17424.52
766,22596,17447.30
767,22604,17470.08
768,22604,17492.85
769,22604,17515.63
770,22612,17538.41
771,22616,17561.19
772,22624,17583.96
773,22632,17606.74
774,22632,17629.52
775,22628,17652.29
776,22616,17675.07
777,22592,17697.85
778,22560,17720.63
779,22532,17743.40
780,22516,17766.18
781,22504,17788.96
782,22496,17811.73
783,22496,17834.51
784,22492,17857.29
785,22492,17880.07
786,22496,17902.84
787,22496,17925.62
788,22496,17948.40
789,22496,17971.17
790,22492,17993.95
791,22488,18016.73
792,22484,18039.51
793,22484,18062.28
794,22488,18085.06
795,22488,18107.84
796,22488,18130.61
797,22488,18153.39
798,22496,18176.17
799,22500,18198.95
800,22504,18221.72
801,22512,18244.50
802,22516,18267.28
803,22528,18290.05
804,22536,18312.83
805,22540,18335.61
806,22548,18358.39
807,22552,18381.16
808,22560,18403.94
809,22564,18426.72
810,22568,18449.49
811,22580,18472.27
812,22584,18495.05
813,22596,18517.83
814,22604,18540.60
815,22608,18563.38
816,22616,18586.16
817,22612,18608.93
818,22604,18631.71
819,22580,18654.49
820,22552,18677.27
821,22520,18700.04
822,22500,18722.82
823,22488,18745.60
824,22480,18768.37
825,22476,18791.15
826,22480,18813.93
827,22484,18836.71
828,22484,18859.48
829,22488,18882.26
830,22488,18905.04
831,22492,18927.81
832,22492,18950.59
833,22488,18973.37
834,22484,18996.15
835,22480,19018.92
836,22480,19041.70
837,22480,19064.48
838,22484,19087.26
839,22488,19110.03
840,22496,19132.81
841,22500,19155.59
842,22508,19178.36
843,22512,19201.14
844,22520,19223.92
845,22528,19246.70
846,22540,19269.47
847,22544,19292.25
848,22552,19315.03
849,22560,19337.80
850,22564,19360.58
851,22568,19383.36
852,22576,19406.14
853,22580,19428.91
854,22588,19451.69
855,22592,19474.47
856,22588,19497.24
857,22576,19520.02
858,22552,19542.80
859,22528,19565.58
860,22508,19588.35
861,22496,19611.13
862,22480,19633.91
863,22480,19656.68
864,22476,19679.46
865,22480,19702.24
866,22492,19725.02
867,22500,19747.79
868,22504,19770.57
869,22512,19793.35
870,22512,19816.12
871,22508,19838.90
872,22500,19861.68
873,22496,19884.46
874,22488,19907.23
875,22488,19930.01
876,22488,19952.79
877,22492,19975.56
878,22496,19998.34
879,22504,20021.12
880,22512,20043.90
881,22520,20066.67
882,22528,20089.45
883,22532,20112.23
884,22536,20135.00
885,22544,20157.78
886,22548,20180.56
887,22556,20203.34
888,22560,20226.11
889,22568,20248.89
890,22560,20271.67
891,22540,20294.44
892,22512,20317.22
893,22484,20340.00
894,22464,20362.78
895,22452,20385.55
896,22444,20408.33
897,22448,20431.11
898,22444,20453.88
899,22452,20476.66
900,22456,20499.44
901,22464,20522.22
902,22468,20544.99
903,22472,20567.77
904,22472,20590.55
905,22464,20613.32
906,22460,20636.10
907,22452,20658.88
908,22448,20681.66
909,22448,20704.43
910,22452,20727.21
911,22456,20749.99
912,22464,20772.76
913,22468,20795.54
914,22472,20818.32
915,22480,20841.10
916,22484,20863.87
917,22488,20886.65
918,22496,20909.43
919,22508,20932.20
920,22512,20954.98
921,22516,20977.76
922,22524,21000.54
923,22528,21023.31
924,22528,21046.09
925,22520,21068.87
926,22496,21091.64
927,22464,21114.42
928,22436,21137.20
929,22416,21159.98
930,22400,21182.75
931,22392,21205.53
932,22392,21228.31
933,22388,21251.08
934,22388,21273.86
935,22396,21296.64
936,22396,21319.42
937,22400,21342.19
938,22404,21364.97
939,22404,21387.75
940,22404,21410.52
941,22400,21433.30
942,22400,21456.08
943,22396,21478.86
944,22396,21501.63
945,22400,21524.41
946,22404,21547.19
947,22408,21569.96
948,22412,21592.74
949,22416,21615.52
950,22424,21638.30
951,22428,21661.07
952,22432,21683.85
953,22436,21706.63
954,22444,21729.40
955,22448,21752.18
956,22452,21774.96
957,22460,21797.74
958,22468,21820.51
959,22472,21843.29
960,22472,21866.07
961,22460,21888.84
962,22436,21911.62
963,22416,21934.40
964,22400,21957.18
965,22388,21979.95
966,22384,22002.73
967,22388,22025.51
968,22392,22048.29
969,22396,22071.06
970,22408,22093.84
971,22416,22116.62
972,22424,22139.39
973,22428,22162.17
974,22432,22184.95
975,22436,22207.73
976,22432,22230.50
977,22428,22253.28
978,22432,22276.06
979,22436,22298.83
980,22436,22321.61
981,22448,22344.39
982,22456,22367.17
983,22460,22389.94
984,22468,22412.72
985,22476,22435.50
986,22484,22458.27
987,22488,22481.05
988,22492,22503.83
989,22496,22526.61
990,22500,22549.38
991,22508,22572.16
992,22512,22594.94
993,22520,22617.71
994,22528,22640.49
995,22536,22663.27
996,22540,22686.05
997,22544,22708.82
998,22540,22731.60
999,22528,22754.38
1000,22508,22777.15
1001,22492,22799.93
1002,22480,22822.71
1003,22472,22845.49
1004,22472,22868.26
1005,22472,22891.04
1006,22476,22913.82
1007,22484,22936.59
1008,22492,22959.37
1009,22496,22982.15
1010,22504,23004.93
1011,22508,23027.70
1012,22512,23050.48
1013,22512,23073.26
1014,22520,23096.03
1015,22516,23118.81
1016,22520,23141.59
1017,22520,23164.37
1018,22524,23187.14
1019,22532,23209.92
1020,22540,23232.70
1021,22552,23255.47
1022,22560,23278.25
1023,22564,23301.03
1024,22572,23323.81
1025,22576,23346.58
1026,22580,23369.36
1027,22580,23392.14
1028,22580,23414.91
1029,22584,23437.69
1030,22584,23460.47
1031,22588,23483.25
1032,22592,23506.02
1033,22588,23528.80
1034,22584,23551.58
1035,22572,23574.35
1036,22552,23597.13
1037,22540,23619.91
1038,22532,23642.69
1039,22528,23665.46
1040,22528,23688.24
1041,22528,23711.02
1042,22532,23733.79
1043,22540,23756.57
1044,22544,23779.35
1045,22552,23802.13
1046,22556,23824.90
1047,22556,23847.68
1048,22560,23870.46
1049,22560,23893.23
1050,22564,23916.01
1051,22564,23938.79
1052,22568,23961.57
1053,22572,23984.34
1054,22584,24007.12
1055,22588,24029.90
1056,22596,24052.67
1057,22604,24075.45
1058,22612,24098.23
1059,22620,24121.01
1060,22624,24143.78
1061,22632,24166.56
1062,22640,24189.34
1063,22644,24212.11
1064,22656,24234.89
1065,22664,24257.67
1066,22672,24280.45
1067,22676,24303.22
1068,22680,24326.00
1069,22688,24348.78
1070,22684,24371.55
1071,22676,24394.33
1072,22664,24417.11
1073,22652,24439.89
1074,22640,24462.66
1075,22628,24485.44
1076,22624,24508.22
1077,22624,24530.99
1078,22624,24553.77
1079,22628,24576.55
1080,22632,24599.33
1081,22632,24622.10
1082,22636,24644.88
1083,22640,24667.66
1084,22644,24690.43
1085,22644,24713.21
1086,22640,24735.99
1087,22644,24758.77
1088,22644,24781.54
1089,22648,24804.32
1090,22652,24827.10
1091,22656,24849.88
1092,22664,24872.65
1093,22676,24895.43
1094,22680,24918.21
1095,22692,24940.98
1096,22700,24963.76
1097,22712,24986.54
1098,22716,25009.32
1099,22724,25032.09
1100,22732,25054.87
1101,22732,25077.65
1102,22736,25100.42
1103,22740,25123.20
1104,22744,25145.98
1105,22748,25168.76
1106,22752,25191.53
1107,22756,25214.31
1108,22760,25237.09
1109,22752,25259.86
1110,22740,25282.64
1111,22724,25305.42
1112,22708,25328.20
1113,22692,25350.97
1114,22684,25373.75
1115,22676,25396.53
1116,22676,25419.30
1117,22676,25442.08
1118,22676,25464.86
1119,22676,25487.64
1120,22676,25510.41
1121,22680,25533.19
1122,22676,25555.97
1123,22680,25578.74
1124,22680,25601.52
1125,22680,25624.30
1126,22672,25647.08
1127,22676,25669.85
1128,22680,25692.63
1129,22680,25715.41
1130,22684,25738.18
1131,22688,25760.96
1132,22692,25783.74
1133,22696,25806.52
1134,22700,25829.29
1135,22704,25852.07
1136,22708,25874.85
1137,22712,25897.62
1138,22720,25920.40
1139,22724,25943.18
1140,22728,25965.96
1141,22728,25988.73
1142,22732,26011.51
1143,22736,26034.29
1144,22736,26057.06
1145,22744,26079.84
1146,22748,26102.62
1147,22752,26125.40
1148,22756,26148.17
1149,22760,26170.95
1150,22760,26193.73
1151,22748,26216.50
1152,22740,26239.28
1153,22724,26262.06
1154,22712,26284.84
1155,22704,26307.61
1156,22704,26330.39
1157,22700,26353.17
1158,22708,26375.94
1159,22712,26398.72
1160,22716,26421.50
1161,22724,26444.28
1162,22724,26467.05
1163,22728,26489.83
1164,22728,26512.61
1165,22724,26535.38
1166,22720,26558.16
1167,22716,26580.94
1168,22720,26603.72
1169,22720,26626.49
1170,22720,26649.27
1171,22728,26672.05
1172,22732,26694.82
1173,22740,26717.60
1174,22744,26740.38
1175,22752,26763.16
1176,22756,26785.93
1177,22760,26808.71
1178,22768,26831.49
1179,22776,26854.26
1180,22776,26877.04
1181,22784,26899.82
1182,22788,26922.60
1183,22792,26945.37
1184,22800,26968.15
1185,22804,26990.93
1186,22804,27013.70
1187,22800,27036.48
1188,22792,27059.26
1189,22776,27082.04
1190,22764,27104.81
1191,22752,27127.59
1192,22748,27150.37
1193,22748,27173.14
1194,22748,27195.92
1195,22748,27218.70
1196,22748,27241.48
1197,22748,27264.25
1198,22752,27287.03
1199,22756,27309.81
1200,22752,27332.58
1201,22752,27355.36
1202,22748,27378.14
1203,22748,27400.92
1204,22748,27423.69
1205,22748,27446.47
1206,22748,27469.25
1207,22748,27492.02
1208,22752,27514.80
1209,22756,27537.58
1210,22760,27560.36
1211,22760,27583.13
1212,22764,27605.91
1213,22768,27628.69
1214,22772,27651.46
1215,22780,27674.24
1216,22780,27697.02
1217,22788,27719.80
1218,22792,27742.57
1219,22796,27765.35
1220,22800,27788.13
1221,22800,27810.91
1222,22804,27833.68
1223,22808,27856.46
1224,22808,27879.24
1225,22800,27902.01
1226,22788,27924.79
1227,22780,27947.57
1228,22764,27970.35
1229,22748,27993.12
1230,22744,28015.90
1231,22740,28038.68
1232,22736,28061.45
1233,22740,28084.23
1234,22740,28107.01
1235,22740,28129.79
1236,22744,28152.56
1237,22748,28175.34
1238,22748,28198.12
1239,22740,28220.89
1240,22736,28243.67
1241,22732,28266.45
1242,22728,28289.23
1243,22724,28312.00
1244,22720,28334.78
1245,22724,28357.56
1246,22728,28380.33
1247,22728,28403.11
1248,22728,28425.89
1249,22728,28448.67
1250,22728,28471.44
1251,22732,28494.22
1252,22728,28517.00
1253,22732,28539.77
1254,22732,28562.55
1255,22740,28585.33
1256,22740,28608.11
1257,22744,28630.88
1258,22744,28653.66
1259,22748,28676.44
1260,22744,28699.21
1261,22736,28721.99
1262,22720,28744.77
1263,22704,28767.55
1264,22688,28790.32
1265,22680,28813.10
1266,22668,28835.88
1267,22664,28858.65
1268,22664,28881.43
1269,22664,28904.21
1270,22664,28926.99
1271,22664,28949.76
1272,22664,28972.54
1273,22668,28995.32
1274,22668,29018.09
1275,22668,29040.87
1276,22664,29063.65
1277,22660,29086.43
1278,22660,29109.20
1279,22660,29131.98
1280,22660,29154.76
1281,22660,29177.53
1282,22660,29200.31
1283,22664,29223.09
1284,22664,29245.87
1285,22668,29268.64
1286,22672,29291.42
1287,22676,29314.20
1288,22680,29336.97
1289,22684,29359.75
1290,22688,29382.53
1291,22688,29405.31
1292,22696,29428.08
1293,22700,29450.86
1294,22700,29473.64
1295,22708,29496.41
1296,22708,29519.19
1297,22708,29541.97
1298,22696,29564.75
1299,22684,29587.52
1300,22668,29610.30
1301,22656,29633.08
1302,22644,29655.85
1303,22640,29678.63
1304,22636,29701.41
1305,22636,29724.19
1306,22640,29746.96
1307,22644,29769.74
1308,22648,29792.52
1309,22656,29815.29
1310,22660,29838.07
1311,22660,29860.85
1312,22660,29883.63
1313,22660,29906.40
1314,22656,29929.18
1315,22660,29951.96
1316,22660,29974.73
1317,22664,29997.51
1318,22672,30020.29
1319,22676,30043.07
1320,22680,30065.84
1321,22680,30088.62
1322,22692,30111.40
1323,22696,30134.17
1324,22700,30156.95
1325,22704,30179.73
1326,22704,30202.51
1327,22708,30225.28
1328,22716,30248.06
1329,22720,30270.84
1330,22724,30293.61
1331,22724,30316.39
1332,22720,30339.17
1333,22704,30361.95
1334,22684,30384.72
1335,22668,30407.50
1336,22656,30430.28
1337,22648,30453.05
1338,22648,30475.83
1339,22652,30498.61
1340,22652,30521.39
1341,22656,30544.16
1342,22664,30566.94
1343,22668,30589.72
1344,22672,30612.49
1345,22672,30635.27
1346,22672,30658.05
1347,22668,30680.83
1348,22664,30703.60
1349,22660,30726.38
1350,22656,30749.16
1351,22656,30771.94
1352,22664,30794.71
1353,22664,30817.49
1354,22664,30840.27
1355,22668,30863.04
1356,22672,30885.82
1357,22672,30908.60
1358,22680,30931.38
1359,22688,30954.15
1360,22692,30976.93
1361,22696,30999.71
1362,22700,31022.48
1363,22704,31045.26
1364,22700,31068.04
1365,22688,31090.82
1366,22672,31113.59
1367,22648,31136.37
1368,22624,31159.15
1369,22604,31181.92
1370,22592,31204.70
1371,22584,31227.48
1372,22584,31250.26
1373,22584,31273.03
1374,22584,31295.81
1375,22584,31318.59
1376,22588,31341.36
1377,22592,31364.14
1378,22592,31386.92
1379,22592,31409.70
1380,22588,31432.47
1381,22588,31455.25
1382,22588,31478.03
1383,22588,31500.80
1384,22588,31523.58
1385,22588,31546.36
1386,22592,31569.14
1387,22596,31591.91
1388,22600,31614.69
1389,22604,31637.47
1390,22608,31660.24
1391,22616,31683.02
1392,22620,31705.80
1393,22624,31728.58
1394,22632,31751.35
1395,22636,31774.13
1396,22636,31796.91
1397,22640,31819.68
1398,22640,31842.46
1399,22632,31865.24
1400,22612,31888.02
1401,22592,31910.79
1402,22564,31933.57
1403,22544,31956.35
1404,22528,31979.12
1405,22520,32001.90
1406,22512,32024.68
1407,22512,32047.46
1408,22512,32070.23
1409,22508,32093.01
1410,22508,32115.79
1411,22512,32138.56
1412,22508,32161.34
1413,22508,32184.12
1414,22508,32206.90
1415,22504,32229.67
1416,22500,32252.45
1417,22500,32275.23
1418,22496,32298.00
1419,22500,32320.78
1420,22496,32343.56
1421,22504,32366.34
1422,22504,32389.11
1423,22512,32411.89
1424,22516,32434.67
1425,22528,32457.44
1426,22532,32480.22
1427,22540,32503.00
1428,22544,32525.78
1429,22552,32548.55
1430,22560,32571.33
1431,22564,32594.11
1432,22572,32616.88
1433,22580,32639.66
1434,22580,32662.44
1435,22576,32685.22
1436,22560,32707.99
1437,22536,32730.77
1438,22512,32753.55
1439,22488,32776.32
1440,22468,32799.10
1441,22460,32821.88
1442,22456,32844.66
1443,22456,32867.43
1444,22460,32890.21
1445,22464,32912.99
1446,22472,32935.76
1447,22476,32958.54
1448,22480,32981.32
1449,22480,33004.10
1450,22480,33026.87
1451,22480,33049.65
1452,22476,33072.43
1453,22476,33095.20
1454,22476,33117.98
1455,22476,33140.76
1456,22480,33163.54
1457,22488,33186.31
1458,22492,33209.09
1459,22500,33231.87
1460,22508,33254.64
1461,22512,33277.42
1462,22524,33300.20
1463,22528,33322.98
1464,22540,33345.75
1465,22548,33368.53
1466,22564,33391.31
1467,22576,33414.08
1468,22580,33436.86
1469,22596,33459.64
1470,22604,33482.42
1471,22612,33505.19
1472,22616,33527.97
1473,22612,33550.75
1474,22600,33573.52
1475,22576,33596.30
1476,22552,33619.08
1477,22532,33641.86
1478,22524,33664.63
1479,22516,33687.41
1480,22516,33710.19
1481,22520,33732.97
1482,22528,33755.74
1483,22536,33778.52
1484,22548,33801.30
1485,22556,33824.07
1486,22568,33846.85
1487,22572,33869.63
1488,22568,33892.41
1489,22564,33915.18
1490,22560,33937.96
1491,22560,33960.74
1492,22556,33983.51
1493,22556,34006.29
1494,22560,34029.07
1495,22560,34051.85
1496,22568,34074.62
1497,22572,34097.40
1498,22580,34120.18
1499,22588,34142.95
1500,22596,34165.73
1501,22604,34188.51
1502,22608,34211.29
1503,22612,34234.06
1504,22620,34256.84
1505,22624,34279.62
1506,22636,34302.39
1507,22644,34325.17
1508,22648,34347.95
1509,22652,34370.73
1510,22636,34393.50
1511,22620,34416.28
1512,22596,34439.06
1513,22580,34461.83
1514,22560,34484.61
1515,22556,34507.39
1516,22556,34530.17
1517,22560,34552.94
1518,22568,34575.72
1519,22576,34598.50
1520,22588,34621.27
1521,22600,34644.05
1522,22604,34666.83
1523,22612,34689.61
1524,22612,34712.38
1525,22608,34735.16
1526,22608,34757.94
1527,22608,34780.71
1528,22608,34803.49
1529,22608,34826.27
1530,22616,34849.05
1531,22620,34871.82
1532,22620,34894.60
1533,22628,34917.38
1534,22632,34940.15
1535,22632,34962.93
1536,22632,34985.71
1537,22644,35008.49
1538,22648,35031.26
1539,22652,35054.04
1540,22660,35076.82
1541,22664,35099.59
1542,22660,35122.37
1543,22652,35145.15
1544,22628,35167.93
1545,22596,35190.70
1546,22564,35213.48
1547,22544,35236.26
1548,22532,35259.03
1549,22528,35281.81
1550,22524,35304.59
1551,22528,35327.37
1552,22540,35350.14
1553,22548,35372.92
1554,22556,35395.70
1555,22564,35418.47
1556,22568,35441.25
1557,22572,35464.03
1558,22572,35486.81
1559,22568,35509.58
1560,22568,35532.36
1561,22568,35555.14
1562,22576,35577.91
1563,22576,35600.69
1564,22584,35623.47
1565,22592,35646.25
1566,22596,35669.02
1567,22604,35691.80
1568,22612,35714.58
1569,22620,35737.35
1570,22628,35760.13
1571,22636,35782.91
1572,22640,35805.69
1573,22652,35828.46
1574,22656,35851.24
1575,22660,35874.02
1576,22656,35896.79
1577,22636,35919.57
1578,22608,35942.35
1579,22576,35965.13
1580,22540,35987.90
1581,22512,36010.68
1582,22496,36033.46
1583,22488,36056.23
1584,22484,36079.01
1585,22488,36101.79
1586,22488,36124.57
1587,22496,36147.34
1588,22500,36170.12
1589,22504,36192.90
1590,22500,36215.67
1591,22508,36238.45
1592,22504,36261.23
1593,22504,36284.01
1594,22504,36306.78
1595,22504,36329.56
1596,22504,36352.34
1597,22508,36375.11
1598,22508,36397.89
1599,22516,36420.67
1600,22528,36443.45
1601,22532,36466.22
1602,22540,36489.00
1603,22552,36511.78
1604,22564,36534.56
1605,22568,36557.33
1606,22576,36580.11
1607,22584,36602.89
1608,22588,36625.66
1609,22596,36648.44
1610,22596,36671.22
1611,22592,36694.00
1612,22576,36716.77
1613,22548,36739.55
1614,22520,36762.33
1615,22492,36785.10
1616,22472,36807.88
1617,22464,36830.66
1618,22456,36853.44
1619,22460,36876.21
1620,22464,36898.99
1621,22468,36921.77
1622,22476,36944.54
1623,22484,36967.32
1624,22488,36990.10
1625,22500,37012.88
1626,22504,37035.65
1627,22504,37058.43
1628,22512,37081.21
1629,22516,37103.98
1630,22520,37126.76
1631,22524,37149.54
1632,22532,37172.32
1633,22540,37195.09
1634,22552,37217.87
1635,22560,37240.65
1636,22572,37263.42
1637,22580,37286.20
1638,22596,37308.98
1639,22604,37331.76
1640,22616,37354.53
1641,22624,37377.31
1642,22640,37400.09
1643,22648,37422.86
1644,22660,37445.64
1645,22664,37468.42
1646,22672,37491.20
1647,22672,37513.97
1648,22664,37536.75
1649,22644,37559.53
1650,22628,37582.30
1651,22608,37605.08
1652,22604,37627.86
1653,22600,37650.64
1654,22604,37673.41
1655,22608,37696.19
1656,22612,37718.97
1657,22624,37741.74
1658,22636,37764.52
1659,22648,37787.30
1660,22656,37810.08
1661,22668,37832.85
1662,22672,37855.63
1663,22676,37878.41
1664,22680,37901.18
1665,22680,37923.96
1666,22684,37946.74
1667,22684,37969.52
1668,22696,37992.29
1669,22704,38015.07
1670,22712,38037.85
1671,22720,38060.62
1672,22732,38083.40
1673,22744,38106.18
1674,22756,38128.96
1675,22768,38151.73
1676,22772,38174.51
1677,22784,38197.29
1678,22792,38220.06
1679,22804,38242.84
1680,22816,38265.62
1681,22828,38288.40
1682,22828,38311.17
1683,22820,38333.95
1684,22804,38356.73
1685,22792,38379.50
1686,22780,38402.28
1687,22772,38425.06
1688,22768,38447.84
1689,22768,38470.61
1690,22772,38493.39
1691,22780,38516.17
1692,22788,38538.94
1693,22796,38561.72
1694,22804,38584.50
1695,22812,38607.28
1696,22812,38630.05
1697,22816,38652.83
1698,22816,38675.61
1699,22816,38698.38
1700,22816,38721.16
1701,22820,38743.94
1702,22828,38766.72
1703,22828,38789.49
1704,22832,38812.27
1705,22836,38835.05
1706,22836,38857.82
1707,22840,38880.60
1708,22848,38903.38
1709,22852,38926.16
1710,22852,38948.93
1711,22860,38971.71
1712,22860,38994.49
1713,22864,39017.26
1714,22872,39040.04
1715,22876,39062.82
1716,22872,39085.60
1717,22868,39108.37
1718,22856,39131.15
1719,22836,39153.93
1720,22816,39176.70
1721,22808,39199.48
1722,22800,39222.26
1723,22800,39245.04
1724,22800,39267.81
1725,22804,39290.59
1726,22808,39313.37
1727,22812,39336.14
1728,22820,39358.92
1729,22824,39381.70
1730,22824,39404.48
1731,22828,39427.25
1732,22828,39450.03
1733,22828,39472.81
1734,22832,39495.59
1735,22836,39518.36
1736,22836,39541.14
1737,22844,39563.92
1738,22852,39586.69
1739,22852,39609.47
1740,22856,39632.25
1741,22860,39655.03
1742,22864,39677.80
1743,22876,39700.58
1744,22876,39723.36
1745,22884,39746.13
1746,22888,39768.91
1747,22896,39791.69
1748,22900,39814.47
1749,22904,39837.24
1750,22908,39860.02
1751,22912,39882.80
1752,22916,39905.57
1753,22912,39928.35
1754,22900,39951.13
1755,22888,39973.91
1756,22872,39996.68
1757,22860,40019.46
1758,22848,40042.24
1759,22848,40065.01
1760,22848,40087.79
1761,22848,40110.57
1762,22852,40133.35
1763,22856,40156.12
1764,22856,40178.90
1765,22860,40201.68
1766,22856,40224.45
1767,22860,40247.23
1768,22860,40270.01
1769,22860,40292.79
1770,22860,40315.56
1771,22860,40338.34
1772,22864,40361.12
1773,22868,40383.89
1774,22872,40406.67
1775,22876,40429.45
1776,22884,40452.23
1777,22884,40475.00
1778,22896,40497.78
1779,22900,40520.56
1780,22904,40543.33
1781,22912,40566.11
1782,22916,40588.89
1783,22920,40611.67
1784,22928,40634.44
1785,22932,40657.22
1786,22940,40680.00
1787,22944,40702.77
1788,22948,40725.55
1789,22952,40748.33
1790,22960,40771.11
1791,22960,40793.88
1792,22956,40816.66
1793,22948,40839.44
1794,22936,40862.21
1795,22924,40884.99
1796,22916,40907.77
1797,22912,40930.55
1798,22908,40953.32
1799,22912,40976.10
1800,22912,40998.88
1801,22912,41021.65
1802,22916,41044.43
1803,22916,41067.21
1804,22920,41089.99
1805,22920,41112.76
1806,22920,41135.54
1807,22920,41158.32
1808,22920,41181.09
1809,22916,41203.87
1810,22912,41226.65
1811,22912,41249.43
1812,22912,41272.20
1813,22916,41294.98
1814,22920,41317.76
1815,22924,41340.53
1816,22932,41363.31
1817,22936,41386.09
1818,22940,41408.87
1819,22948,41431.64
1820,22952,41454.42
1821,22960,41477.20
1822,22960,41499.97
1823,22968,41522.75
1824,22972,41545.53
1825,22984,41568.31
1826,22992,41591.08
1827,23000,41613.86
1828,23000,41636.64
1829,22996,41659.41
1830,22988,41682.19
1831,22980,41704.97
1832,22972,41727.75
1833,22968,41750.52
1834,22964,41773.30
1835,22968,41796.08
1836,22972,41818.85
1837,22976,41841.63
1838,22980,41864.41
1839,22984,41887.19
1840,22988,41909.96
1841,22992,41932.74
1842,22988,41955.52
1843,22988,41978.29
1844,22984,42001.07
1845,22984,42023.85
1846,22980,42046.63
1847,22984,42069.40
1848,22988,42092.18
1849,22992,42114.96
1850,22992,42137.73
1851,22996,42160.51
1852,22996,42183.29
1853,23000,42206.07
1854,23004,42228.84
1855,23008,42251.62
1856,23016,42274.40
1857,23016,42297.17
1858,23024,42319.95
1859,23028,42342.73
1860,23032,42365.51
1861,23040,42388.28
1862,23044,42411.06
1863,23036,42433.84
1864,23024,42456.62
1865,23012,42479.39
1866,22996,42502.17
1867,22988,42524.95
1868,22980,42547.72
1869,22984,42570.50
1870,22984,42593.28
1871,22984,42616.06
1872,22984,42638.83
1873,22988,42661.61
1874,22992,42684.39
1875,22988,42707.16
1876,22992,42729.94
1877,22992,42752.72
1878,22992,42775.50
1879,22992,42798.27
1880,22988,42821.05
1881,22988,42843.83
1882,22984,42866.60
1883,22980,42889.38
1884,22984,42912.16
1885,22984,42934.94
1886,22984,42957.71
1887,22988,42980.49
1888,22988,43003.27
1889,22992,43026.04
1890,22992,43048.82
1891,22992,43071.60
1892,22992,43094.38
1893,22996,43117.15
1894,22992,43139.93
1895,22992,43162.71
1896,22992,43185.48
1897,22992,43208.26
1898,22984,43231.04
1899,22968,43253.82
1900,22952,43276.59
1901,22932,43299.37
1902,22916,43322.15
1903,22904,43344.92
1904,22900,43367.70
1905,22892,43390.48
1906,22892,43413.26
1907,22892,43436.03
1908,22892,43458.81
1909,22900,43481.59
1910,22900,43504.36
1911,22900,43527.14
1912,22896,43549.92
1913,22896,43572.70
1914,22892,43595.47
1915,22884,43618.25
1916,22876,43641.03
1917,22880,43663.80
1918,22880,43686.58
1919,22876,43709.36
1920,22880,43732.14
1921,22880,43754.91
1922,22884,43777.69
1923,22884,43800.47
1924,22888,43823.24
1925,22892,43846.02
1926,22888,43868.80
1927,22892,43891.58
1928,22892,43914.35
1929,22892,43937.13
1930,22896,43959.91
1931,22892,43982.68
1932,22884,44005.46
1933,22872,44028.24
1934,22852,44051.02
1935,22832,44073.79
1936,22812,44096.57
1937,22796,44119.35
1938,22788,44142.12
1939,22784,44164.90
1940,22780,44187.68
1941,22780,44210.46
1942,22784,44233.23
1943,22788,44256.01
1944,22792,44278.79
1945,22792,44301.56
1946,22792,44324.34
1947,22792,44347.12
1948,22788,44369.90
1949,22784,44392.67
1950,22788,44415.45
1951,22784,44438.23
1952,22784,44461.00
1953,22788,44483.78
1954,22792,44506.56
1955,22788,44529.34
1956,22796,44552.11
1957,22800,44574.89
1958,22804,44597.67
1959,22804,44620.44
1960,22808,44643.22
1961,22812,44666.00
1962,22816,44688.78
1963,22820,44711.55
1964,22824,44734.33
1965,22820,44757.11
1966,22808,44779.88
1967,22796,44802.66
1968,22772,44825.44
1969,22756,44848.22
1970,22736,44870.99
1971,22724,44893.77
1972,22720,44916.55
1973,22716,44939.32
1974,22716,44962.10
1975,22724,44984.88
1976,22720,45007.66
1977,22724,45030.43
1978,22720,45053.21
1979,22716,45075.99
1980,22716,45098.76
1981,22716,45121.54
1982,22708,45144.32
1983,22708,45167.10
1984,22708,45189.87
1985,22708,45212.65
1986,22708,45235.43
1987,22716,45258.20
1988,22716,45280.98
1989,22720,45303.76
1990,22724,45326.54
1991,22728,45349.31
1992,22736,45372.09
1993,22740,45394.87
1994,22748,45417.65
1995,22752,45440.42
1996,22756,45463.20
1997,22756,45485.98
1998,22752,45508.75
1999,22736,45531.53
2000,22724,45554.31
2001,22704,45577.09
2002,22688,45599.86
2003,22676,45622.64
2004,22672,45645.42
2005,22668,45668.19
2006,22672,45690.97
2007,22668,45713.75
2008,22672,45736.53
2009,22672,45759.30
2010,22672,45782.08
2011,22672,45804.86
2012,22676,45827.63
2013,22672,45850.41
2014,22672,45873.19
2015,22664,45895.97
2016,22664,45918.74
2017,22668,45941.52
2018,22668,45964.30
2019,22672,45987.07
2020,22676,46009.85
2021,22680,46032.63
2022,22688,46055.41
2023,22696,46078.18
2024,22700,46100.96
2025,22704,46123.74
2026,22712,46146.51
2027,22716,46169.29
2028,22720,46192.07
2029,22724,46214.85
2030,22728,46237.62
2031,22724,46260.40
2032,22712,46283.18
2033,22696,46305.95
2034,22676,46328.73
2035,22660,46351.51
2036,22652,46374.29
2037,22644,46397.06
2038,22644,46419.84
2039,22644,46442.62
2040,22652,46465.39
2041,22656,46488.17
2042,22660,46510.95
2043,22660,46533.73
2044,22664,46556.50
2045,22668,46579.28
2046,22664,46602.06
2047,22660,46624.83
2048,22656,46647.61
2049,22656,46670.39
2050,22652,46693.17
2051,22652,46715.94
2052,22660,46738.72
2053,22660,46761.50
2054,22668,46784.27
2055,22668,46807.05
2056,22672,46829.83
2057,22676,46852.61
2058,22680,46875.38
2059,22684,46898.16
2060,22688,46920.94
2061,22692,46943.71
2062,22696,46966.49
2063,22704,46989.27
2064,22708,47012.05
2065,22712,47034.82
2066,22712,47057.60
2067,22700,47080.38
2068,22684,47103.15
2069,22668,47125.93
2070,22652,47148.71
2071,22640,47171.49
2072,22636,47194.26
2073,22632,47217.04
2074,22636,47239.82
2075,22640,47262.59
2076,22644,47285.37
2077,22652,47308.15
2078,22656,47330.93
2079,22660,47353.70
2080,22660,47376.48
2081,22660,47399.26
2082,22656,47422.03
2083,22656,47444.81
2084,22652,47467.59
2085,22656,47490.37
2086,22660,47513.14
2087,22660,47535.92
2088,22664,47558.70
2089,22668,47581.47
2090,22672,47604.25
2091,22676,47627.03
2092,22676,47649.81
2093,22676,47672.58
2094,22676,47695.36
2095,22680,47718.14
2096,22688,47740.91
2097,22692,47763.69
2098,22696,47786.47
2099,22704,47809.25
2100,22704,47832.02
2101,22708,47854.80
2102,22704,47877.58
2103,22692,47900.35
2104,22672,47923.13
2105,22656,47945.91
2106,22640,47968.69
2107,22632,47991.46
2108,22628,48014.24
2109,22628,48037.02
2110,22632,48059.79
2111,22636,48082.57
2112,22636,48105.35
2113,22644,48128.13
2114,22652,48150.90
2115,22656,48173.68
2116,22656,48196.46
2117,22660,48219.24
2118,22660,48242.01
2119,22664,48264.79
2120,22664,48287.57
2121,22664,48310.34
2122,22668,48333.12
2123,22672,48355.90
2124,22676,48378.68
2125,22680,48401.45
2126,22688,48424.23
2127,22696,48447.01
2128,22700,48469.78
2129,22708,48492.56
2130,22712,48515.34
2131,22716,48538.12
2132,22720,48560.89
2133,22720,48583.67
2134,22724,48606.45
2135,22720,48629.22
2136,22712,48652.00
2137,22692,48674.78
2138,22672,48697.56
2139,22652,48720.33
2140,22636,48743.11
2141,22628,48765.89
2142,22624,48788.66
2143,22624,48811.44
2144,22620,48834.22
2145,22624,48857.00
2146,22628,48879.77
2147,22632,48902.55
2148,22640,48925.33
2149,22644,48948.10
2150,22644,48970.88
2151,22648,48993.66
2152,22648,49016.44
2153,22652,49039.21
2154,22652,49061.99
2155,22656,49084.77
2156,22656,49107.54
2157,22664,49130.32
2158,22668,49153.10
2159,22672,49175.88
2160,22676,49198.65
2161,22684,49221.43
2162,22692,49244.21
2163,22700,49266.98
2164,22704,49289.76
2165,22704,49312.54
2166,22704,49335.32
2167,22708,49358.09
2168,22712,49380.87
2169,22712,49403.65
2170,22716,49426.42
2171,22716,49449.20
2172,22704,49471.98
2173,22684,49494.76
2174,22660,49517.53
2175,22632,49540.31
2176,22616,49563.09
2177,22600,49585.86
2178,22600,49608.64
2179,22596,49631.42
2180,22596,49654.20
2181,22592,49676.97
2182,22596,49699.75
2183,22596,49722.53
2184,22600,49745.30
2185,22596,49768.08
2186,22596,49790.86
2187,22596,49813.64
2188,22588,49836.41
2189,22584,49859.19
2190,22580,49881.97
2191,22584,49904.74
2192,22584,49927.52
2193,22592,49950.30
2194,22596,49973.08
2195,22600,49995.85
2196,22608,50018.63
2197,22612,50041.41
2198,22616,50064.18
2199,22624,50086.96
2200,22632,50109.74
2201,22640,50132.52
2202,22644,50155.29
2203,22648,50178.07
2204,22652,50200.85
2205,22660,50223.62
2206,22668,50246.40
2207,22676,50269.18
2208,22676,50291.96
2209,22676,50314.73
2210,22656,50337.51
2211,22636,50360.29
2212,22612,50383.06
2213,22588,50405.84
2214,22576,50428.62
2215,22568,50451.40
2216,22568,50474.17
2217,22568,50496.95
2218,22568,50519.73
2219,22572,50542.50
2220,22572,50565.28
2221,22576,50588.06
2222,22576,50610.84
2223,22576,50633.61
2224,22576,50656.39
2225,22576,50679.17
2226,22576,50701.94
2227,22576,50724.72
2228,22576,50747.50
2229,22576,50770.28
2230,22584,50793.05
2231,22584,50815.83
2232,22584,50838.61
2233,22592,50861.38
2234,22592,50884.16
2235,22600,50906.94
2236,22608,50929.72
2237,22616,50952.49
2238,22620,50975.27
2239,22632,50998.05
2240,22636,51020.82
2241,22648,51043.60
2242,22652,51066.38
2243,22656,51089.16
2244,22660,51111.93
2245,22668,51134.71
2246,22672,51157.49
2247,22680,51180.27
2248,22688,51203.04
2249,22688,51225.82
2250,22680,51248.60
2251,22660,51271.37
2252,22636,51294.15
2253,22612,51316.93
2254,22596,51339.71
2255,22584,51362.48
2256,22584,51385.26
2257,22584,51408.04
2258,22588,51430.81
2259,22588,51453.59
2260,22596,51476.37
2261,22600,51499.15
2262,22608,51521.92
2263,22608,51544.70
2264,22612,51567.48
2265,22608,51590.25
2266,22604,51613.03
2267,22600,51635.81
2268,22600,51658.59
2269,22600,51681.36
2270,22604,51704.14
2271,22604,51726.92
2272,22608,51749.69
2273,22616,51772.47
2274,22616,51795.25
2275,22628,51818.03
2276,22632,51840.80
2277,22644,51863.58
2278,22648,51886.36
2279,22656,51909.13
2280,22664,51931.91
2281,22668,51954.69
2282,22668,51977.47
2283,22676,52000.24
2284,22680,52023.02
2285,22684,52045.80
2286,22676,52068.57
2287,22664,52091.35
2288,22644,52114.13
2289,22620,52136.91
2290,22600,52159.68
2291,22584,52182.46
2292,22576,52205.24
2293,22572,52228.01
2294,22576,52250.79
2295,22580,52273.57
2296,22588,52296.35
2297,22596,52319.12
2298,22604,52341.90
2299,22608,52364.68
2300,22612,52387.45
2301,22612,52410.23
2302,22612,52433.01
2303,22608,52455.79
2304,22608,52478.56
2305,22608,52501.34
2306,22608,52524.12
2307,22612,52546.89
2308,22616,52569.67
2309,22620,52592.45
2310,22624,52615.23
2311,22632,52638.00
2312,22636,52660.78
2313,22644,52683.56
2314,22648,52706.33
2315,22656,52729.11
2316,22660,52751.89
2317,22664,52774.67
2318,22668,52797.44
2319,22676,52820.22
2320,22680,52843.00
2321,22680,52865.77
2322,22668,52888.55
2323,22644,52911.33
2324,22616,52934.11
2325,22588,52956.88
2326,22564,52979.66
2327,22552,53002.44
2328,22548,53025.21
2329,22552,53047.99
2330,22556,53070.77
2331,22568,53093.55
2332,22580,53116.32
2333,22588,53139.10
2334,22592,53161.88
2335,22596,53184.65
2336,22596,53207.43
2337,22600,53230.21
2338,22604,53252.99
2339,22600,53275.76
2340,22604,53298.54
2341,22608,53321.32
2342,22612,53344.09
2343,22624,53366.87
2344,22628,53389.65
2345,22632,53412.43
2346,22636,53435.20
2347,22640,53457.98
2348,22644,53480.76
2349,22652,53503.53
2350,22656,53526.31
2351,22668,53549.09
2352,22672,53571.87
2353,22680,53594.64
2354,22688,53617.42
2355,22692,53640.20
2356,22688,53662.97
2357,22672,53685.75
2358,22644,53708.53
2359,22612,53731.31
2360,22584,53754.08
2361,22564,53776.86
2362,22552,53799.64
2363,22552,53822.41
2364,22556,53845.19
2365,22560,53867.97
2366,22568,53890.75
2367,22580,53913.52
2368,22588,53936.30
2369,22600,53959.08
2370,22604,53981.85
2371,22608,54004.63
2372,22612,54027.41
2373,22612,54050.19
2374,22616,54072.96
2375,22612,54095.74
2376,22616,54118.52
2377,22624,54141.30
2378,22636,54164.07
2379,22640,54186.85
2380,22656,54209.63
2381,22664,54232.40
2382,22676,54255.18
2383,22684,54277.96
2384,22692,54300.74
2385,22704,54323.51
2386,22720,54346.29
2387,22728,54369.07
2388,22736,54391.84
2389,22736,54414.62
2390,22724,54437.40
2391,22708,54460.18
2392,22684,54482.95
2393,22664,54505.73
2394,22644,54528.51
2395,22632,54551.28
2396,22628,54574.06
2397,22628,54596.84
2398,22632,54619.62
2399,22640,54642.39
2400,22648,54665.17
2401,22660,54687.95
2402,22668,54710.72
2403,22672,54733.50
2404,22676,54756.28
2405,22672,54779.06
2406,22680,54801.83
2407,22684,54824.61
2408,22688,54847.39
2409,22688,54870.16
2410,22696,54892.94
2411,22704,54915.72
2412,22712,54938.50
2413,22724,54961.27
2414,22740,54984.05
2415,22756,55006.83
2416,22768,55029.60
2417,22776,55052.38
2418,22784,55075.16
2419,22792,55097.94
2420,22796,55120.71
2421,22788,55143.49
2422,22780,55166.27
2423,22760,55189.04
2424,22740,55211.82
2425,22720,55234.60
2426,22712,55257.38
2427,22708,55280.15
2428,22708,55302.93
2429,22708,55325.71
2430,22712,55348.48
2431,22716,55371.26
2432,22720,55394.04
2433,22728,55416.82
2434,22728,55439.59
2435,22728,55462.37
2436,22724,55485.15
2437,22720,55507.92
2438,22716,55530.70
2439,22720,55553.48
2440,22724,55576.26
2441,22728,55599.03
2442,22732,55621.81
2443,22736,55644.59
2444,22740,55667.36
2445,22748,55690.14
2446,22752,55712.92
2447,22760,55735.70
2448,22764,55758.47
2449,22768,55781.25
2450,22768,55804.03
2451,22768,55826.80
2452,22752,55849.58
2453,22736,55872.36
2454,22716,55895.14
2455,22700,55917.91
2456,22692,55940.69
2457,22684,55963.47
2458,22684,55986.24
2459,22680,56009.02
2460,22684,56031.80
2461,22684,56054.58
2462,22692,56077.35
2463,22696,56100.13
2464,22696,56122.91
2465,22696,56145.68
2466,22696,56168.46
2467,22692,56191.24
2468,22688,56214.02
2469,22692,56236.79
2470,22692,56259.57
2471,22696,56282.35
2472,22700,56305.12
2473,22708,56327.90
2474,22716,56350.68
2475,22720,56373.46
2476,22724,56396.23
2477,22728,56419.01
2478,22732,56441.79
2479,22740,56464.56
2480,22744,56487.34
2481,22752,56510.12
2482,22752,56532.90
2483,22748,56555.67
2484,22736,56578.45
2485,22720,56601.23
2486,22708,56624.00
2487,22696,56646.78
2488,22688,56669.56
2489,22688,56692.34
2490,22688,56715.11
2491,22688,56737.89
2492,22692,56760.67
2493,22696,56783.44
2494,22704,56806.22
2495,22708,56829.00
2496,22708,56851.78
2497,22712,56874.55
2498,22712,56897.33
2499,22712,56920.11
2500,22712,56942.89
2501,22716,56965.66
2502,22724,56988.44
2503,22724,57011.22
2504,22732,57033.99
2505,22736,57056.77
2506,22740,57079.55
2507,22744,57102.33
2508,22756,57125.10
2509,22756,57147.88
2510,22760,57170.66
2511,22768,57193.43
2512,22768,57216.21
2513,22772,57238.99
2514,22780,57261.77
2515,22784,57284.54
2516,22792,57307.32
2517,22796,57330.10
2518,22788,57352.87
2519,22776,57375.65
2520,22764,57398.43
2521,22748,57421.21
2522,22740,57443.98
2523,22732,57466.76
2524,22736,57489.54
2525,22740,57512.31
2526,22740,57535.09
2527,22744,57557.87
2528,22748,57580.65
2529,22752,57603.42
2530,22756,57626.20
2531,22756,57648.98
2532,22760,57671.75
2533,22756,57694.53
2534,22760,57717.31
2535,22760,57740.09
2536,22764,57762.86
2537,22768,57785.64
2538,22772,57808.42
2539,22772,57831.19
2540,22780,57853.97
2541,22780,57876.75
2542,22784,57899.53
2543,22792,57922.30
2544,22796,57945.08
2545,22800,57967.86
2546,22804,57990.63
2547,22808,58013.41
2548,22812,58036.19
2549,22824,58058.97
2550,22824,58081.74
2551,22824,58104.52
2552,22832,58127.30
2553,22836,58150.07
2554,22836,58172.85
2555,22840,58195.63
2556,22832,58218.41
2557,22824,58241.18
2558,22808,58263.96
2559,22792,58286.74
2560,22780,58309.51
2561,22772,58332.29
2562,22772,58355.07
2563,22772,58377.85
2564,22776,58400.62
2565,22784,58423.40
2566,22792,58446.18
2567,22804,58468.95
2568,22804,58491.73
2569,22808,58514.51
2570,22816,58537.29
2571,22816,58560.06
2572,22820,58582.84
2573,22820,58605.62
2574,22828,58628.39
2575,22836,58651.17
2576,22844,58673.95
2577,22852,58696.73
2578,22856,58719.50
2579,22864,58742.28
2580,22868,58765.06
2581,22876,58787.83
2582,22880,58810.61
2583,22884,58833.39
2584,22892,58856.17
2585,22900,58878.94
2586,22904,58901.72
2587,22912,58924.50
2588,22920,58947.27
2589,22920,58970.05
2590,22924,58992.83
2591,22916,59015.61
2592,22900,59038.38
2593,22884,59061.16
2594,22864,59083.94
2595,22856,59106.71
2596,22848,59129.49
2597,22848,59152.27
2598,22844,59175.05
2599,22848,59197.82
2600,22852,59220.60
2601,22856,59243.38
2602,22856,59266.15
2603,22856,59288.93
2604,22860,59311.71
2605,22860,59334.49
2606,22856,59357.26
2607,22864,59380.04
2608,22864,59402.82
2609,22864,59425.59
2610,22868,59448.37
2611,22872,59471.15
2612,22876,59493.93
2613,22884,59516.70
2614,22888,59539.48
2615,22892,59562.26
2616,22896,59585.03
2617,22904,59607.81
2618,22912,59630.59
2619,22916,59653.37
2620,22924,59676.14
2621,22936,59698.92
2622,22940,59721.70
2623,22948,59744.47
2624,22948,59767.25
2625,22956,59790.03
2626,22960,59812.81
2627,22960,59835.58
2628,22948,59858.36
2629,22936,59881.14
2630,22916,59903.92
2631,22892,59926.69
2632,22880,59949.47
2633,22868,59972.25
2634,22864,59995.02
2635,22856,60017.80
2636,22852,60040.58
2637,22856,60063.36
2638,22856,60086.13
2639,22856,60108.91
2640,22856,60131.69
2641,22860,60154.46
2642,22852,60177.24
2643,22848,60200.02
2644,22844,60222.80
2645,22840,60245.57
2646,22836,60268.35
2647,22840,60291.13
2648,22840,60313.90
2649,22844,60336.68
2650,22848,60359.46
2651,22852,60382.24
2652,22856,60405.01
2653,22864,60427.79
2654,22868,60450.57
2655,22872,60473.34
2656,22876,60496.12
2657,22884,60518.90
2658,22892,60541.68
2659,22900,60564.45
2660,22904,60587.23
2661,22912,60610.01
2662,22920,60632.78
2663,22924,60655.56
2664,22928,60678.34
2665,22932,60701.12
2666,22924,60723.89
2667,22916,60746.67
2668,22900,60769.45
2669,22884,60792.22
2670,22868,60815.00
2671,22856,60837.78
2672,22840,60860.56
2673,22840,60883.33
2674,22836,60906.11
2675,22836,60928.89
2676,22836,60951.66
2677,22844,60974.44
2678,22844,60997.22
2679,22840,61020.00
2680,22844,61042.77
2681,22844,61065.55
2682,22840,61088.33
2683,22844,61111.10
2684,22840,61133.88
2685,22836,61156.66
2686,22836,61179.44
2687,22836,61202.21
2688,22836,61224.99
2689,22840,61247.77
2690,22844,61270.54
2691,22852,61293.32
2692,22856,61316.10
2693,22856,61338.88
2694,22864,61361.65
2695,22864,61384.43
2696,22872,61407.21
2697,22872,61429.98
2698,22880,61452.76
2699,22884,61475.54
2700,22892,61498.32
2701,22900,61521.09
2702,22904,61543.87
2703,22908,61566.65
2704,22904,61589.42
2705,22892,61612.20
2706,22876,61634.98
2707,22856,61657.76
2708,22836,61680.53
2709,22816,61703.31
2710,22812,61726.09
2711,22804,61748.86
2712,22808,61771.64
2713,22808,61794.42
2714,22812,61817.20
2715,22816,61839.97
2716,22824,61862.75
2717,22828,61885.53
2718,22828,61908.30
2719,22828,61931.08
2720,22824,61953.86
2721,22824,61976.64
2722,22816,61999.41
2723,22820,62022.19
2724,22820,62044.97
2725,22828,62067.74
2726,22828,62090.52
2727,22836,62113.30
2728,22840,62136.08
2729,22848,62158.85
2730,22852,62181.63
2731,22860,62204.41
2732,22868,62227.18
2733,22876,62249.96
2734,22884,62272.74
2735,22888,62295.52
2736,22900,62318.29
2737,22908,62341.07
2738,22908,62363.85
2739,22900,62386.62
2740,22880,62409.40
2741,22856,62432.18
2742,22832,62454.96
2743,22816,62477.73
2744,22796,62500.51
2745,22788,62523.29
2746,22792,62546.06
2747,22788,62568.84
2748,22796,62591.62
2749,22796,62614.40
2750,22800,62637.17
2751,22800,62659.95
2752,22804,62682.73
2753,22804,62705.50
2754,22800,62728.28
2755,22800,62751.06
2756,22796,62773.84
2757,22796,62796.61
2758,22792,62819.39
2759,22792,62842.17
2760,22788,62864.95
2761,22792,62887.72
2762,22792,62910.50
2763,22796,62933.28
2764,22800,62956.05
2765,22808,62978.83
2766,22808,63001.61
2767,22820,63024.39
2768,22824,63047.16
2769,22832,63069.94
2770,22836,63092.72
2771,22844,63115.49
2772,22848,63138.27
2773,22844,63161.05
2774,22828,63183.83
2775,22804,63206.60
2776,22776,63229.38
2777,22748,63252.16
2778,22724,63274.93
2779,22712,63297.71
2780,22704,63320.49
2781,22708,63343.27
2782,22708,63366.04
2783,22712,63388.82
2784,22716,63411.60
2785,22724,63434.37
2786,22732,63457.15
2787,22736,63479.93
2788,22736,63502.71
2789,22732,63525.48
2790,22732,63548.26
2791,22728,63571.04
2792,22728,63593.81
2793,22728,63616.59
2794,22732,63639.37
2795,22740,63662.15
2796,22744,63684.92
2797,22752,63707.70
2798,22756,63730.48
2799,22764,63753.25
2800,22768,63776.03
2801,22776,63798.81
2802,22780,63821.59
2803,22784,63844.36
2804,22792,63867.14
2805,22800,63889.92
2806,22804,63912.69
2807,22804,63935.47
2808,22796,63958.25
2809,22776,63981.03
2810,22748,64003.80
2811,22720,64026.58
2812,22696,64049.36
2813,22680,64072.13
2814,22672,64094.91
2815,22672,64117.69
2816,22672,64140.47
2817,22676,64163.24
2818,22684,64186.02
2819,22692,64208.80
2820,22696,64231.57
2821,22700,64254.35
2822,22708,64277.13
2823,22708,64299.91
2824,22708,64322.68
2825,22712,64345.46
2826,22712,64368.24
2827,22716,64391.01
2828,22724,64413.79
2829,22732,64436.57
2830,22736,64459.35
2831,22744,64482.12
2832,22756,64504.90
2833,22764,64527.68
2834,22772,64550.45
2835,22776,64573.23
2836,22784,64596.01
2837,22788,64618.79
2838,22796,64641.56
2839,22808,64664.34
2840,22816,64687.12
2841,22820,64709.89
2842,22824,64732.67
2843,22816,64755.45
2844,22796,64778.23
2845,22768,64801.00
2846,22740,64823.78
2847,22720,64846.56
2848,22704,64869.33
2849,22696,64892.11
2850,22696,64914.89
2851,22700,64937.67
2852,22704,64960.44
2853,22712,64983.22
2854,22724,65006.00
2855,22728,65028.77
2856,22732,65051.55
2857,22732,65074.33
2858,22732,65097.11
2859,22732,65119.88
2860,22736,65142.66
2861,22736,65165.44
2862,22740,65188.21
2863,22744,65210.99
2864,22752,65233.77
2865,22764,65256.55
2866,22768,65279.32
2867,22776,65302.10
2868,22788,65324.88
2869,22796,65347.65
2870,22808,65370.43
2871,22816,65393.21
2872,22824,65415.99
2873,22836,65438.76
2874,22844,65461.54
2875,22852,65484.32
2876,22852,65507.09
2877,22840,65529.87
2878,22820,65552.65
2879,22792,65575.43
2880,22768,65598.20
2881,22752,65620.98
2882,22744,65643.76
2883,22744,65666.53
2884,22744,65689.31
2885,22752,65712.09
2886,22764,65734.87
2887,22768,65757.64
2888,22776,65780.42
2889,22776,65803.20
2890,22780,65825.98
2891,22776,65848.75
2892,22768,65871.53
2893,22764,65894.31
2894,22756,65917.08
2895,22752,65939.86
2896,22756,65962.64
2897,22756,65985.42
2898,22760,66008.19
2899,22760,66030.97
2900,22764,66053.75
2901,22772,66076.52
2902,22768,66099.30
2903,22772,66122.08
2904,22780,66144.86
2905,22784,66167.63
2906,22788,66190.41
2907,22796,66213.19
2908,22792,66235.96
2909,22780,66258.74
2910,22752,66281.52
2911,22720,66304.30
2912,22692,66327.07
2913,22672,66349.85
2914,22656,66372.63
2915,22648,66395.40
2916,22652,66418.18
2917,22656,66440.96
2918,22660,66463.74
2919,22664,66486.51
2920,22668,66509.29
2921,22672,66532.07
2922,22676,66554.84
2923,22672,66577.62
2924,22668,66600.40
2925,22668,66623.18
2926,22668,66645.95
2927,22668,66668.73
2928,22672,66691.51
2929,22672,66714.28
2930,22680,66737.06
2931,22680,66759.84
2932,22688,66782.62
2933,22692,66805.39
2934,22692,66828.17
2935,22696,66850.95
2936,22704,66873.72
2937,22708,66896.50
2938,22712,66919.28
2939,22720,66942.06
2940,22724,66964.83
2941,22732,66987.61
2942,22736,67010.39
2943,22736,67033.16
2944,22728,67055.94
2945,22704,67078.72
2946,22668,67101.50
2947,22632,67124.27
2948,22604,67147.05
2949,22584,67169.83
2950,22572,67192.60
2951,22568,67215.38
2952,22568,67238.16
2953,22572,67260.94
2954,22576,67283.71
2955,22576,67306.49
2956,22580,67329.27
2957,22588,67352.04
2958,22588,67374.82
2959,22584,67397.60
2960,22580,67420.38
2961,22576,67443.15
2962,22576,67465.93
2963,22572,67488.71
2964,22568,67511.48
2965,22568,67534.26
2966,22576,67557.04
2967,22580,67579.82
2968,22584,67602.59
2969,22592,67625.37
2970,22592,67648.15
2971,22600,67670.92
2972,22608,67693.70
2973,22612,67716.48
2974,22616,67739.26
2975,22620,67762.03
2976,22620,67784.81
2977,22624,67807.59
2978,22628,67830.36
2979,22636,67853.14
2980,22640,67875.92
2981,22640,67898.70
2982,22644,67921.47
2983,22648,67944.25
2984,22648,67967.03
2985,22628,67989.80
2986,22600,68012.58
2987,22564,68035.36
2988,22532,68058.14
2989,22500,68080.91
2990,22480,68103.69
2991,22464,68126.47
2992,22460,68149.24
2993,22464,68172.02
2994,22468,68194.80
2995,22472,68217.58
2996,22480,68240.35
2997,22484,68263.13
2998,22488,68285.91
2999,22488,68308.68
