Sample_Index,IR_Value,Timestamp_ms
0,21056,0.00
1,21068,21.46
2,20552,42.93
3,20528,64.39
4,20756,85.86
5,21140,107.32
6,21452,128.79
7,21688,150.25
8,21864,171.72
9,22008,193.18
10,22144,214.65
11,22260,236.11
12,22368,257.58
13,22464,279.04
14,22560,300.50
15,22652,321.97
16,22728,343.43
17,22796,364.90
18,22840,386.36
19,22872,407.83
20,22896,429.29
21,22876,450.76
22,22816,472.22
23,22736,493.69
24,22632,515.15
25,22540,536.62
26,22476,558.08
27,22428,579.54
28,22412,601.01
29,22420,622.47
30,22444,643.94
31,22468,665.40
32,22488,686.87
33,22496,708.33
34,22496,729.80
35,22492,751.26
36,22476,772.73
37,22452,794.19
38,22420,815.66
39,22388,837.12
40,22364,858.58
41,22360,880.05
42,22364,901.51
43,22364,922.98
44,22372,944.44
45,22388,965.91
46,22400,987.37
47,22416,1008.84
48,22436,1030.30
49,22456,1051.77
50,22472,1073.23
51,22500,1094.70
52,22544,1116.16
53,22596,1137.63
54,22648,1159.09
55,22684,1180.55
56,22716,1202.02
57,22756,1223.48
58,22800,1244.95
59,22852,1266.41
60,22912,1287.88
61,22968,1309.34
62,23020,1330.81
63,23080,1352.27
64,23132,1373.74
65,23156,1395.20
66,23132,1416.67
67,23060,1438.13
68,22968,1459.59
69,22876,1481.06
70,22812,1502.52
71,22784,1523.99
72,22764,1545.45
73,22756,1566.92
74,22752,1588.38
75,22748,1609.85
76,22760,1631.31
77,22776,1652.78
78,22792,1674.24
79,22804,1695.71
80,22812,1717.17
81,22812,1738.63
82,22804,1760.10
83,22808,1781.56
84,22812,1803.03
85,22816,1824.49
86,22824,1845.96
87,22836,1867.42
88,22856,1888.89
89,22876,1910.35
90,22892,1931.82
91,22916,1953.28
92,22936,1974.75
93,22960,1996.21
94,22976,2017.67
95,22992,2039.14
96,23004,2060.60
97,23020,2082.07
98,23032,2103.53
99,23048,2125.00
100,23068,2146.46
101,23096,2167.93
102,23120,2189.39
103,23148,2210.86
104,23156,2232.32
105,23132,2253.79
106,23072,2275.25
107,23000,2296.71
108,22920,2318.18
109,22864,2339.64
110,22832,2361.11
111,22828,2382.57
112,22840,2404.04
113,22868,2425.50
114,22896,2446.97
115,22928,2468.43
116,22968,2489.90
117,22992,2511.36
118,23012,2532.83
119,23024,2554.29
120,23028,2575.75
121,23028,2597.22
122,23032,2618.68
123,23028,2640.15
124,23036,2661.61
125,23048,2683.08
126,23068,2704.54
127,23092,2726.01
128,23124,2747.47
129,23152,2768.94
130,23180,2790.40
131,23204,2811.87
132,23232,2833.33
133,23264,2854.79
134,23300,2876.26
135,23336,2897.72
136,23368,2919.19
137,23392,2940.65
138,23392,2962.12
139,23368,2983.58
140,23316,3005.05
141,23252,3026.51
142,23204,3047.98
143,23180,3069.44
144,23168,3090.91
145,23176,3112.37
146,23196,3133.84
147,23220,3155.30
148,23248,3176.76
149,23284,3198.23
150,23316,3219.69
151,23344,3241.16
152,23360,3262.62
153,23380,3284.09
154,23388,3305.55
155,23400,3327.02
156,23412,3348.48
157,23424,3369.95
158,23444,3391.41
159,23468,3412.88
160,23492,3434.34
161,23520,3455.80
162,23548,3477.27
163,23584,3498.73
164,23612,3520.20
165,23644,3541.66
166,23668,3563.13
167,23700,3584.59
168,23716,3606.06
169,23704,3627.52
170,23668,3648.99
171,23616,3670.45
172,23564,3691.92
173,23520,3713.38
174,23492,3734.84
175,23480,3756.31
176,23484,3777.77
177,23496,3799.24
178,23516,3820.70
179,23540,3842.17
180,23564,3863.63
181,23588,3885.10
182,23604,3906.56
183,23616,3928.03
184,23612,3949.49
185,23612,3970.96
186,23616,3992.42
187,23620,4013.88
188,23628,4035.35
189,23644,4056.81
190,23660,4078.28
191,23672,4099.74
192,23692,4121.21
193,23716,4142.67
194,23732,4164.14
195,23752,4185.60
196,23776,4207.07
197,23800,4228.53
198,23792,4250.00
199,23760,4271.46
200,23712,4292.92
201,23652,4314.39
202,23600,4335.85
203,23564,4357.32
204,23548,4378.78
205,23552,4400.25
206,23560,4421.71
207,23576,4443.18
208,23592,4464.64
209,23612,4486.11
210,23636,4507.57
211,23652,4529.04
212,23664,4550.50
213,23668,4571.96
214,23668,4593.43
215,23668,4614.89
216,23672,4636.36
217,23676,4657.82
218,23688,4679.29
219,23704,4700.75
220,23724,4722.22
221,23748,4743.68
222,23768,4765.15
223,23792,4786.61
224,23808,4808.08
225,23836,4829.54
226,23856,4851.00
227,23884,4872.47
228,23900,4893.93
229,23900,4915.40
230,23864,4936.86
231,23812,4958.33
232,23752,4979.79
233,23704,5001.26
234,23672,5022.72
235,23652,5044.19
236,23652,5065.65
237,23660,5087.12
238,23664,5108.58
239,23684,5130.04
240,23700,5151.51
241,23716,5172.97
242,23740,5194.44
243,23756,5215.90
244,23772,5237.37
245,23780,5258.83
246,23784,5280.30
247,23792,5301.76
248,23804,5323.23
249,23820,5344.69
250,23832,5366.16
251,23852,5387.62
252,23872,5409.09
253,23892,5430.55
254,23916,5452.01
255,23932,5473.48
256,23952,5494.94
257,23972,5516.41
258,23988,5537.87
259,24008,5559.34
260,24036,5580.80
261,24060,5602.27
262,24092,5623.73
263,24116,5645.20
264,24140,5666.66
265,24156,5688.13
266,24172,5709.59
267,24192,5731.05
268,24212,5752.52
269,24228,5773.98
270,24216,5795.45
271,24192,5816.91
272,24148,5838.38
273,24112,5859.84
274,24092,5881.31
275,24080,5902.77
276,24080,5924.24
277,24084,5945.70
278,24088,5967.17
279,24092,5988.63
280,24100,6010.09
281,24112,6031.56
282,24124,6053.02
283,24132,6074.49
284,24140,6095.95
285,24144,6117.42
286,24148,6138.88
287,24152,6160.35
288,24156,6181.81
289,24164,6203.28
290,24172,6224.74
291,24180,6246.21
292,24196,6267.67
293,24204,6289.13
294,24212,6310.60
295,24224,6332.06
296,24236,6353.53
297,24244,6374.99
298,24248,6396.46
299,24260,6417.92
300,24268,6439.39
301,24280,6460.85
302,24288,6482.32
303,24296,6503.78
304,24304,6525.25
305,24316,6546.71
306,24320,6568.17
307,24332,6589.64
308,24336,6611.10
309,24344,6632.57
310,24356,6654.03
311,24364,6675.50
312,24348,6696.96
313,24328,6718.43
314,24300,6739.89
315,24284,6761.36
316,24276,6782.82
317,24276,6804.29
318,24280,6825.75
319,24288,6847.21
320,24296,6868.68
321,24304,6890.14
322,24316,6911.61
323,24320,6933.07
324,24328,6954.54
325,24336,6976.00
326,24336,6997.47
327,24340,7018.93
328,24340,7040.40
329,24348,7061.86
330,24348,7083.33
331,24352,7104.79
332,24360,7126.25
333,24368,7147.72
334,24380,7169.18
335,24388,7190.65
336,24396,7212.11
337,24408,7233.58
338,24416,7255.04
339,24424,7276.51
340,24432,7297.97
341,24436,7319.44
342,24440,7340.90
343,24448,7362.37
344,24456,7383.83
345,24464,7405.30
346,24472,7426.76
347,24476,7448.22
348,24484,7469.69
349,24492,7491.15
350,24500,7512.62
351,24508,7534.08
352,24516,7555.55
353,24524,7577.01
354,24524,7598.48
355,24512,7619.94
356,24500,7641.41
357,24488,7662.87
358,24484,7684.34
359,24488,7705.80
360,24500,7727.26
361,24508,7748.73
362,24520,7770.19
363,24528,7791.66
364,24536,7813.12
365,24548,7834.59
366,24552,7856.05
367,24564,7877.52
368,24568,7898.98
369,24568,7920.45
370,24572,7941.91
371,24576,7963.38
372,24580,7984.84
373,24576,8006.30
374,24588,8027.77
375,24588,8049.23
376,24596,8070.70
377,24608,8092.16
378,24612,8113.63
379,24620,8135.09
380,24628,8156.56
381,24632,8178.02
382,24640,8199.49
383,24644,8220.95
384,24648,8242.42
385,24652,8263.88
386,24656,8285.34
387,24664,8306.81
388,24664,8328.27
389,24672,8349.74
390,24676,8371.20
391,24680,8392.67
392,24676,8414.13
393,24668,8435.60
394,24660,8457.06
395,24656,8478.53
396,24660,8499.99
397,24668,8521.46
398,24672,8542.92
399,24688,8564.38
400,24696,8585.85
401,24708,8607.31
402,24712,8628.78
403,24720,8650.24
404,24724,8671.71
405,24728,8693.17
406,24732,8714.64
407,24736,8736.10
408,24736,8757.57
409,24744,8779.03
410,24752,8800.50
411,24756,8821.96
412,24764,8843.42
413,24772,8864.89
414,24776,8886.35
415,24784,8907.82
416,24788,8929.28
417,24796,8950.75
418,24796,8972.21
419,24808,8993.68
420,24808,9015.14
421,24816,9036.61
422,24824,9058.07
423,24828,9079.54
424,24832,9101.00
425,24840,9122.46
426,24840,9143.93
427,24844,9165.39
428,24848,9186.86
429,24848,9208.32
430,24836,9229.79
431,24828,9251.25
432,24816,9272.72
433,24816,9294.18
434,24820,9315.65
435,24832,9337.11
436,24840,9358.58
437,24852,9380.04
438,24852,9401.51
439,24860,9422.97
440,24864,9444.43
441,24868,9465.90
442,24876,9487.36
443,24880,9508.83
444,24888,9530.29
445,24896,9551.76
446,24892,9573.22
447,24900,9594.69
448,24904,9616.15
449,24912,9637.62
450,24916,9659.08
451,24924,9680.55
452,24928,9702.01
453,24932,9723.47
454,24944,9744.94
455,24944,9766.40
456,24952,9787.87
457,24960,9809.33
458,24964,9830.80
459,24968,9852.26
460,24972,9873.73
461,24980,9895.19
462,24984,9916.66
463,24988,9938.12
464,24992,9959.59
465,25000,9981.05
466,25004,10002.51
467,25000,10023.98
468,24992,10045.44
469,24984,10066.91
470,24980,10088.37
471,24976,10109.84
472,24980,10131.30
473,24988,10152.77
474,24992,10174.23
475,25000,10195.70
476,25008,10217.16
477,25012,10238.63
478,25020,10260.09
479,25024,10281.55
480,25020,10303.02
481,25024,10324.48
482,25024,10345.95
483,25024,10367.41
484,25024,10388.88
485,25028,10410.34
486,25036,10431.81
487,25036,10453.27
488,25040,10474.74
489,25044,10496.20
490,25052,10517.67
491,25056,10539.13
492,25060,10560.59
493,25068,10582.06
494,25072,10603.52
495,25072,10624.99
496,25080,10646.45
497,25084,10667.92
498,25092,10689.38
499,25092,10710.85
500,25096,10732.31
501,25100,10753.78
502,25104,10775.24
503,25108,10796.71
504,25108,10818.17
505,25100,10839.63
506,25092,10861.10
507,25084,10882.56
508,25088,10904.03
509,25088,10925.49
510,25092,10946.96
511,25100,10968.42
512,25104,10989.89
513,25108,11011.35
514,25112,11032.82
515,25116,11054.28
516,25116,11075.75
517,25120,11097.21
518,25120,11118.67
519,25120,11140.14
520,25124,11161.60
521,25120,11183.07
522,25124,11204.53
523,25120,11226.00
524,25128,11247.46
525,25128,11268.93
526,25132,11290.39
527,25136,11311.86
528,25132,11333.32
529,25136,11354.79
530,25140,11376.25
531,25144,11397.71
532,25144,11419.18
533,25148,11440.64
534,25152,11462.11
535,25156,11483.57
536,25156,11505.04
537,25152,11526.50
538,25144,11547.97
539,25136,11569.43
540,25132,11590.90
541,25132,11612.36
542,25132,11633.83
543,25140,11655.29
544,25144,11676.76
545,25148,11698.22
546,25152,11719.68
547,25156,11741.15
548,25156,11762.61
549,25160,11784.08
550,25160,11805.54
551,25160,11827.01
552,25160,11848.47
553,25160,11869.94
554,25160,11891.40
555,25160,11912.87
556,25160,11934.33
557,25160,11955.80
558,25164,11977.26
559,25168,11998.72
560,25168,12020.19
561,25164,12041.65
562,25164,12063.12
563,25168,12084.58
564,25168,12106.05
565,25172,12127.51
566,25176,12148.98
567,25176,12170.44
568,25176,12191.91
569,25172,12213.37
570,25160,12234.84
571,25152,12256.30
572,25132,12277.76
573,25124,12299.23
574,25116,12320.69
575,25116,12342.16
576,25116,12363.62
577,25116,12385.09
578,25116,12406.55
579,25120,12428.02
580,25116,12449.48
581,25116,12470.95
582,25120,12492.41
583,25116,12513.88
584,25116,12535.34
585,25112,12556.80
586,25104,12578.27
587,25104,12599.73
588,25108,12621.20
589,25108,12642.66
590,25108,12664.13
591,25108,12685.59
592,25112,12707.06
593,25112,12728.52
594,25112,12749.99
595,25116,12771.45
596,25116,12792.92
597,25116,12814.38
598,25116,12835.84
599,25116,12857.31
600,25124,12878.77
601,25120,12900.24
602,25124,12921.70
603,25124,12943.17
604,25124,12964.63
605,25104,12986.10
606,25084,13007.56
607,25064,13029.03
608,25044,13050.49
609,25032,13071.96
610,25020,13093.42
611,25020,13114.88
612,25020,13136.35
613,25016,13157.81
614,25016,13179.28
615,25016,13200.74
616,25012,13222.21
617,25012,13243.67
618,25004,13265.14
619,25004,13286.60
620,25000,13308.07
621,24996,13329.53
622,24996,13351.00
623,24992,13372.46
624,24988,13393.92
625,24988,13415.39
626,24988,13436.85
627,24992,13458.32
628,24992,13479.78
629,24992,13501.25
630,24996,13522.71
631,24996,13544.18
632,24996,13565.64
633,25004,13587.11
634,25008,13608.57
635,25004,13630.04
636,25004,13651.50
637,25004,13672.97
638,25008,13694.43
639,25004,13715.89
640,25008,13737.36
641,25004,13758.82
642,25012,13780.29
643,25012,13801.75
644,25012,13823.22
645,25000,13844.68
646,24980,13866.15
647,24960,13887.61
648,24936,13909.08
649,24916,13930.54
650,24908,13952.01
651,24900,13973.47
652,24900,13994.93
653,24900,14016.40
654,24900,14037.86
655,24900,14059.33
656,24896,14080.79
657,24900,14102.26
658,24896,14123.72
659,24888,14145.19
660,24880,14166.65
661,24880,14188.12
662,24872,14209.58
663,24868,14231.05
664,24868,14252.51
665,24872,14273.97
666,24872,14295.44
667,24872,14316.90
668,24876,14338.37
669,24876,14359.83
670,24880,14381.30
671,24884,14402.76
672,24888,14424.23
673,24888,14445.69
674,24896,14467.16
675,24904,14488.62
676,24900,14510.09
677,24904,14531.55
678,24908,14553.01
679,24908,14574.48
680,24912,14595.94
681,24908,14617.41
682,24896,14638.87
683,24880,14660.34
684,24860,14681.80
685,24836,14703.27
686,24828,14724.73
687,24820,14746.20
688,24824,14767.66
689,24824,14789.13
690,24824,14810.59
691,24828,14832.05
692,24828,14853.52
693,24828,14874.98
694,24828,14896.45
695,24824,14917.91
696,24816,14939.38
697,24808,14960.84
698,24804,14982.31
699,24804,15003.77
700,24800,15025.24
701,24804,15046.70
702,24800,15068.17
703,24804,15089.63
704,24800,15111.09
705,24804,15132.56
706,24804,15154.02
707,24808,15175.49
708,24808,15196.95
709,24816,15218.42
710,24820,15239.88
711,24820,15261.35
712,24824,15282.81
713,24824,15304.28
714,24828,15325.74
715,24828,15347.21
716,24812,15368.67
717,24792,15390.13
718,24764,15411.60
719,24744,15433.06
720,24732,15454.53
721,24728,15475.99
722,24728,15497.46
723,24732,15518.92
724,24728,15540.39
725,24736,15561.85
726,24736,15583.32
727,24740,15604.78
728,24740,15626.25
729,24740,15647.71
730,24732,15669.18
731,24728,15690.64
732,24728,15712.10
733,24720,15733.57
734,24716,15755.03
735,24716,15776.50
736,24716,15797.96
737,24716,15819.43
738,24712,15840.89
739,24716,15862.36
740,24716,15883.82
741,24724,15905.29
742,24724,15926.75
743,24728,15948.22
744,24728,15969.68
745,24736,15991.14
746,24732,16012.61
747,24732,16034.07
748,24732,16055.54
749,24736,16077.00
750,24736,16098.47
751,24724,16119.93
752,24704,16141.40
753,24676,16162.86
754,24644,16184.33
755,24620,16205.79
756,24608,16227.26
757,24600,16248.72
758,24596,16270.18
759,24592,16291.65
760,24592,16313.11
761,24592,16334.58
762,24592,16356.04
763,24596,16377.51
764,24596,16398.97
765,24592,16420.44
766,24592,16441.90
767,24592,16463.37
768,24584,16484.83
769,24580,16506.30
770,24576,16527.76
771,24576,16549.22
772,24576,16570.69
773,24580,16592.15
774,24580,16613.62
775,24584,16635.08
776,24588,16656.55
777,24596,16678.01
778,24600,16699.48
779,24604,16720.94
780,24608,16742.41
781,24604,16763.87
782,24608,16785.34
783,24608,16806.80
784,24608,16828.26
785,24612,16849.73
786,24612,16871.19
787,24604,16892.66
788,24584,16914.12
789,24548,16935.59
790,24520,16957.05
791,24488,16978.52
792,24468,16999.98
793,24460,17021.45
794,24452,17042.91
795,24456,17064.38
796,24460,17085.84
797,24460,17107.30
798,24464,17128.77
799,24472,17150.23
800,24468,17171.70
801,24464,17193.16
802,24464,17214.63
803,24460,17236.09
804,24456,17257.56
805,24452,17279.02
806,24452,17300.49
807,24452,17321.95
808,24456,17343.42
809,24456,17364.88
810,24460,17386.34
811,24468,17407.81
812,24472,17429.27
813,24476,17450.74
814,24484,17472.20
815,24484,17493.67
816,24492,17515.13
817,24500,17536.60
818,24504,17558.06
819,24512,17579.53
820,24516,17600.99
821,24520,17622.46
822,24516,17643.92
823,24500,17665.39
824,24472,17686.85
825,24440,17708.31
826,24408,17729.78
827,24388,17751.24
828,24380,17772.71
829,24380,17794.17
830,24380,17815.64
831,24388,17837.10
832,24392,17858.57
833,24404,17880.03
834,24408,17901.50
835,24412,17922.96
836,24408,17944.43
837,24408,17965.89
838,24404,17987.35
839,24396,18008.82
840,24396,18030.28
841,24400,18051.75
842,24400,18073.21
843,24408,18094.68
844,24412,18116.14
845,24420,18137.61
846,24428,18159.07
847,24436,18180.54
848,24444,18202.00
849,24452,18223.47
850,24460,18244.93
851,24464,18266.39
852,24476,18287.86
853,24484,18309.32
854,24488,18330.79
855,24500,18352.25
856,24492,18373.72
857,24472,18395.18
858,24440,18416.65
859,24404,18438.11
860,24376,18459.58
861,24356,18481.04
862,24348,18502.51
863,24344,18523.97
864,24348,18545.43
865,24352,18566.90
866,24360,18588.36
867,24364,18609.83
868,24364,18631.29
869,24368,18652.76
870,24364,18674.22
871,24360,18695.69
872,24352,18717.15
873,24344,18738.62
874,24348,18760.08
875,24348,18781.55
876,24352,18803.01
877,24356,18824.47
878,24360,18845.94
879,24368,18867.40
880,24372,18888.87
881,24380,18910.33
882,24384,18931.80
883,24392,18953.26
884,24404,18974.73
885,24412,18996.19
886,24424,19017.66
887,24436,19039.12
888,24440,19060.59
889,24448,19082.05
890,24440,19103.51
891,24412,19124.98
892,24372,19146.44
893,24328,19167.91
894,24300,19189.37
895,24276,19210.84
896,24268,19232.30
897,24264,19253.77
898,24268,19275.23
899,24276,19296.70
900,24280,19318.16
901,24284,19339.63
902,24288,19361.09
903,24292,19382.55
904,24296,19404.02
905,24296,19425.48
906,24296,19446.95
907,24292,19468.41
908,24296,19489.88
909,24296,19511.34
910,24296,19532.81
911,24304,19554.27
912,24312,19575.74
913,24316,19597.20
914,24320,19618.67
915,24332,19640.13
916,24336,19661.59
917,24348,19683.06
918,24356,19704.52
919,24368,19725.99
920,24376,19747.45
921,24388,19768.92
922,24392,19790.38
923,24400,19811.85
924,24404,19833.31
925,24412,19854.78
926,24412,19876.24
927,24400,19897.71
928,24372,19919.17
929,24332,19940.64
930,24288,19962.10
931,24252,19983.56
932,24228,20005.03
933,24220,20026.49
934,24220,20047.96
935,24216,20069.42
936,24220,20090.89
937,24220,20112.35
938,24224,20133.82
939,24232,20155.28
940,24240,20176.75
941,24244,20198.21
942,24240,20219.68
943,24244,20241.14
944,24240,20262.60
945,24236,20284.07
946,24236,20305.53
947,24240,20327.00
948,24244,20348.46
949,24252,20369.93
950,24264,20391.39
951,24272,20412.86
952,24288,20434.32
953,24296,20455.79
954,24308,20477.25
955,24320,20498.72
956,24328,20520.18
957,24340,20541.64
958,24352,20563.11
959,24360,20584.57
960,24368,20606.04
961,24376,20627.50
962,24388,20648.97
963,24392,20670.43
964,24400,20691.90
965,24408,20713.36
966,24412,20734.83
967,24392,20756.29
968,24360,20777.76
969,24320,20799.22
970,24272,20820.68
971,24236,20842.15
972,24216,20863.61
973,24208,20885.08
974,24212,20906.54
975,24224,20928.01
976,24228,20949.47
977,24240,20970.94
978,24252,20992.40
979,24260,21013.87
980,24264,21035.33
981,24272,21056.80
982,24276,21078.26
983,24272,21099.72
984,24272,21121.19
985,24272,21142.65
986,24276,21164.12
987,24280,21185.58
988,24292,21207.05
989,24304,21228.51
990,24312,21249.98
991,24324,21271.44
992,24336,21292.91
993,24348,21314.37
994,24360,21335.84
995,24372,21357.30
996,24384,21378.76
997,24392,21400.23
998,24404,21421.69
999,24412,21443.16
1000,24420,21464.62
1001,24432,21486.09
1002,24436,21507.55
1003,24420,21529.02
1004,24384,21550.48
1005,24348,21571.95
1006,24308,21593.41
1007,24276,21614.88
1008,24260,21636.34
1009,24256,21657.80
1010,24260,21679.27
1011,24268,21700.73
1012,24284,21722.20
1013,24292,21743.66
1014,24304,21765.13
1015,24312,21786.59
1016,24316,21808.06
1017,24324,21829.52
1018,24320,21850.99
1019,24320,21872.45
1020,24320,21893.92
1021,24316,21915.38
1022,24316,21936.85
1023,24320,21958.31
1024,24324,21979.77
1025,24332,22001.24
1026,24344,22022.70
1027,24356,22044.17
1028,24364,22065.63
1029,24372,22087.10
1030,24380,22108.56
1031,24388,22130.03
1032,24400,22151.49
1033,24412,22172.96
1034,24420,22194.42
1035,24416,22215.89
1036,24396,22237.35
1037,24360,22258.81
1038,24312,22280.28
1039,24276,22301.74
1040,24248,22323.21
1041,24228,22344.67
1042,24224,22366.14
1043,24224,22387.60
1044,24232,22409.07
1045,24244,22430.53
1046,24260,22452.00
1047,24264,22473.46
1048,24272,22494.93
1049,24272,22516.39
1050,24268,22537.85
1051,24260,22559.32
1052,24256,22580.78
1053,24252,22602.25
1054,24252,22623.71
1055,24256,22645.18
1056,24256,22666.64
1057,24268,22688.11
1058,24272,22709.57
1059,24284,22731.04
1060,24288,22752.50
1061,24300,22773.97
1062,24308,22795.43
1063,24320,22816.89
1064,24332,22838.36
1065,24344,22859.82
1066,24352,22881.29
1067,24348,22902.75
1068,24328,22924.22
1069,24284,22945.68
1070,24232,22967.15
1071,24188,22988.61
1072,24148,23010.08
1073,24128,23031.54
1074,24120,23053.01
1075,24120,23074.47
1076,24124,23095.93
1077,24136,23117.40
1078,24148,23138.86
1079,24164,23160.33
1080,24176,23181.79
1081,24184,23203.26
1082,24184,23224.72
1083,24184,23246.19
1084,24188,23267.65
1085,24180,23289.12
1086,24184,23310.58
1087,24192,23332.05
1088,24196,23353.51
1089,24204,23374.97
1090,24212,23396.44
1091,24220,23417.90
1092,24236,23439.37
1093,24248,23460.83
1094,24256,23482.30
1095,24268,23503.76
1096,24272,23525.23
1097,24284,23546.69
1098,24296,23568.16
1099,24308,23589.62
1100,24316,23611.09
1101,24304,23632.55
1102,24268,23654.01
1103,24212,23675.48
1104,24152,23696.94
1105,24100,23718.41
1106,24056,23739.87
1107,24032,23761.34
1108,24020,23782.80
1109,24020,23804.27
1110,24020,23825.73
1111,24028,23847.20
1112,24040,23868.66
1113,24052,23890.13
1114,24060,23911.59
1115,24068,23933.06
1116,24072,23954.52
1117,24072,23975.98
1118,24068,23997.45
1119,24064,24018.91
1120,24068,24040.38
1121,24072,24061.84
1122,24076,24083.31
1123,24088,24104.77
1124,24100,24126.24
1125,24108,24147.70
1126,24124,24169.17
1127,24136,24190.63
1128,24148,24212.10
1129,24164,24233.56
1130,24180,24255.02
1131,24196,24276.49
1132,24212,24297.95
1133,24220,24319.42
1134,24236,24340.88
1135,24244,24362.35
1136,24256,24383.81
1137,24240,24405.28
1138,24200,24426.74
1139,24136,24448.21
1140,24064,24469.67
1141,24000,24491.14
1142,23952,24512.60
1143,23920,24534.06
1144,23896,24555.53
1145,23896,24576.99
1146,23900,24598.46
1147,23912,24619.92
1148,23924,24641.39
1149,23936,24662.85
1150,23948,24684.32
1151,23952,24705.78
1152,23956,24727.25
1153,23952,24748.71
1154,23952,24770.18
1155,23948,24791.64
1156,23948,24813.10
1157,23952,24834.57
1158,23960,24856.03
1159,23972,24877.50
1160,23988,24898.96
1161,24000,24920.43
1162,24012,24941.89
1163,24028,24963.36
1164,24048,24984.82
1165,24064,25006.29
1166,24084,25027.75
1167,24100,25049.22
1168,24120,25070.68
1169,24136,25092.14
1170,24148,25113.61
1171,24164,25135.07
1172,24172,25156.54
1173,24160,25178.00
1174,24124,25199.47
1175,24068,25220.93
1176,24004,25242.40
1177,23944,25263.86
1178,23904,25285.33
1179,23880,25306.79
1180,23872,25328.26
1181,23876,25349.72
1182,23892,25371.18
1183,23908,25392.65
1184,23928,25414.11
1185,23952,25435.58
1186,23960,25457.04
1187,23968,25478.51
1188,23968,25499.97
1189,23968,25521.44
1190,23960,25542.90
1191,23956,25564.37
1192,23960,25585.83
1193,23964,25607.30
1194,23968,25628.76
1195,23976,25650.22
1196,23988,25671.69
1197,24004,25693.15
1198,24024,25714.62
1199,24044,25736.08
1200,24060,25757.55
1201,24072,25779.01
1202,24088,25800.48
1203,24100,25821.94
1204,24116,25843.41
1205,24120,25864.87
1206,24096,25886.34
1207,24052,25907.80
1208,23984,25929.26
1209,23920,25950.73
1210,23864,25972.19
1211,23824,25993.66
1212,23812,26015.12
1213,23812,26036.59
1214,23824,26058.05
1215,23840,26079.52
1216,23860,26100.98
1217,23884,26122.45
1218,23900,26143.91
1219,23908,26165.38
1220,23908,26186.84
1221,23904,26208.31
1222,23892,26229.77
1223,23880,26251.23
1224,23880,26272.70
1225,23880,26294.16
1226,23884,26315.63
1227,23892,26337.09
1228,23904,26358.56
1229,23920,26380.02
1230,23932,26401.49
1231,23944,26422.95
1232,23964,26444.42
1233,23980,26465.88
1234,24000,26487.35
1235,24012,26508.81
1236,24004,26530.27
1237,23968,26551.74
1238,23912,26573.20
1239,23828,26594.67
1240,23744,26616.13
1241,23688,26637.60
1242,23652,26659.06
1243,23640,26680.53
1244,23640,26701.99
1245,23652,26723.46
1246,23668,26744.92
1247,23684,26766.39
1248,23700,26787.85
1249,23712,26809.31
1250,23724,26830.78
1251,23724,26852.24
1252,23728,26873.71
1253,23728,26895.17
1254,23724,26916.64
1255,23724,26938.10
1256,23736,26959.57
1257,23748,26981.03
1258,23756,27002.50
1259,23776,27023.96
1260,23796,27045.43
1261,23816,27066.89
1262,23836,27088.35
1263,23856,27109.82
1264,23876,27131.28
1265,23892,27152.75
1266,23912,27174.21
1267,23924,27195.68
1268,23912,27217.14
1269,23860,27238.61
1270,23776,27260.07
1271,23680,27281.54
1272,23600,27303.00
1273,23548,27324.47
1274,23516,27345.93
1275,23508,27367.39
1276,23508,27388.86
1277,23520,27410.32
1278,23536,27431.79
1279,23548,27453.25
1280,23568,27474.72
1281,23584,27496.18
1282,23596,27517.65
1283,23596,27539.11
1284,23592,27560.58
1285,23596,27582.04
1286,23596,27603.51
1287,23600,27624.97
1288,23612,27646.43
1289,23624,27667.90
1290,23644,27689.36
1291,23660,27710.83
1292,23680,27732.29
1293,23700,27753.76
1294,23724,27775.22
1295,23744,27796.69
1296,23768,27818.15
1297,23784,27839.62
1298,23812,27861.08
1299,23824,27882.55
1300,23828,27904.01
1301,23788,27925.47
1302,23716,27946.94
1303,23640,27968.40
1304,23552,27989.87
1305,23496,28011.33
1306,23464,28032.80
1307,23456,28054.26
1308,23468,28075.73
1309,23480,28097.19
1310,23504,28118.66
1311,23528,28140.12
1312,23552,28161.59
1313,23568,28183.05
1314,23580,28204.52
1315,23592,28225.98
1316,23592,28247.44
1317,23588,28268.91
1318,23588,28290.37
1319,23588,28311.84
1320,23596,28333.30
1321,23608,28354.77
1322,23628,28376.23
1323,23644,28397.70
1324,23668,28419.16
1325,23688,28440.63
1326,23704,28462.09
1327,23728,28483.56
1328,23748,28505.02
1329,23772,28526.48
1330,23788,28547.95
1331,23784,28569.41
1332,23748,28590.88
1333,23680,28612.34
1334,23600,28633.81
1335,23528,28655.27
1336,23480,28676.74
1337,23452,28698.20
1338,23448,28719.67
1339,23460,28741.13
1340,23476,28762.60
1341,23508,28784.06
1342,23536,28805.52
1343,23564,28826.99
1344,23588,28848.45
1345,23604,28869.92
1346,23616,28891.38
1347,23612,28912.85
1348,23612,28934.31
1349,23612,28955.78
1350,23620,28977.24
1351,23624,28998.71
1352,23640,29020.17
1353,23660,29041.64
1354,23680,29063.10
1355,23700,29084.56
1356,23720,29106.03
1357,23740,29127.49
1358,23760,29148.96
1359,23780,29170.42
1360,23784,29191.89
1361,23752,29213.35
1362,23696,29234.82
1363,23616,29256.28
1364,23548,29277.75
1365,23492,29299.21
1366,23460,29320.68
1367,23456,29342.14
1368,23468,29363.60
1369,23488,29385.07
1370,23516,29406.53
1371,23548,29428.00
1372,23572,29449.46
1373,23592,29470.93
1374,23608,29492.39
1375,23608,29513.86
1376,23608,29535.32
1377,23604,29556.79
1378,23604,29578.25
1379,23608,29599.72
1380,23620,29621.18
1381,23628,29642.64
1382,23648,29664.11
1383,23664,29685.57
1384,23680,29707.04
1385,23700,29728.50
1386,23720,29749.97
1387,23740,29771.43
1388,23756,29792.90
1389,23748,29814.36
1390,23708,29835.83
1391,23640,29857.29
1392,23560,29878.76
1393,23492,29900.22
1394,23440,29921.68
1395,23416,29943.15
1396,23408,29964.61
1397,23412,29986.08
1398,23428,30007.54
1399,23452,30029.01
1400,23480,30050.47
1401,23504,30071.94
1402,23524,30093.40
1403,23532,30114.87
1404,23532,30136.33
1405,23528,30157.80
1406,23528,30179.26
1407,23528,30200.73
1408,23528,30222.19
1409,23540,30243.65
1410,23552,30265.12
1411,23564,30286.58
1412,23584,30308.05
1413,23604,30329.51
1414,23624,30350.98
1415,23644,30372.44
1416,23668,30393.91
1417,23688,30415.37
1418,23704,30436.84
1419,23688,30458.30
1420,23632,30479.77
1421,23544,30501.23
1422,23448,30522.69
1423,23364,30544.16
1424,23304,30565.62
1425,23276,30587.09
1426,23268,30608.55
1427,23276,30630.02
1428,23288,30651.48
1429,23308,30672.95
1430,23332,30694.41
1431,23356,30715.88
1432,23376,30737.34
1433,23392,30758.81
1434,23396,30780.27
1435,23396,30801.73
1436,23392,30823.20
1437,23384,30844.66
1438,23392,30866.13
1439,23388,30887.59
1440,23400,30909.06
1441,23412,30930.52
1442,23424,30951.99
1443,23444,30973.45
1444,23468,30994.92
1445,23496,31016.38
1446,23524,31037.85
1447,23548,31059.31
1448,23572,31080.77
1449,23592,31102.24
1450,23616,31123.70
1451,23632,31145.17
1452,23640,31166.63
1453,23596,31188.10
1454,23520,31209.56
1455,23416,31231.03
1456,23316,31252.49
1457,23248,31273.96
1458,23212,31295.42
1459,23200,31316.89
1460,23204,31338.35
1461,23220,31359.81
1462,23236,31381.28
1463,23256,31402.74
1464,23280,31424.21
1465,23308,31445.67
1466,23320,31467.14
1467,23332,31488.60
1468,23336,31510.07
1469,23340,31531.53
1470,23344,31553.00
1471,23348,31574.46
1472,23356,31595.93
1473,23372,31617.39
1474,23392,31638.85
1475,23408,31660.32
1476,23420,31681.78
1477,23440,31703.25
1478,23456,31724.71
1479,23484,31746.18
1480,23504,31767.64
1481,23520,31789.11
1482,23544,31810.57
1483,23564,31832.04
1484,23576,31853.50
1485,23596,31874.97
1486,23612,31896.43
1487,23616,31917.89
1488,23600,31939.36
1489,23536,31960.82
1490,23440,31982.29
1491,23336,32003.75
1492,23256,32025.22
1493,23204,32046.68
1494,23184,32068.15
1495,23172,32089.61
1496,23184,32111.08
1497,23196,32132.54
1498,23216,32154.01
1499,23240,32175.47
1500,23260,32196.94
1501,23284,32218.40
1502,23296,32239.86
1503,23300,32261.33
1504,23304,32282.79
1505,23304,32304.26
1506,23304,32325.72
1507,23308,32347.19
1508,23316,32368.65
1509,23332,32390.12
1510,23352,32411.58
1511,23368,32433.05
1512,23392,32454.51
1513,23412,32475.98
1514,23440,32497.44
1515,23472,32518.90
1516,23500,32540.37
1517,23532,32561.83
1518,23560,32583.30
1519,23588,32604.76
1520,23616,32626.23
1521,23632,32647.69
1522,23624,32669.16
1523,23584,32690.62
1524,23508,32712.09
1525,23420,32733.55
1526,23344,32755.02
1527,23288,32776.48
1528,23272,32797.94
1529,23268,32819.41
1530,23288,32840.87
1531,23316,32862.34
1532,23348,32883.80
1533,23388,32905.27
1534,23424,32926.73
1535,23452,32948.20
1536,23476,32969.66
1537,23484,32991.13
1538,23488,33012.59
1539,23488,33034.06
1540,23492,33055.52
1541,23500,33076.98
1542,23504,33098.45
1543,23516,33119.91
1544,23532,33141.38
1545,23552,33162.84
1546,23568,33184.31
1547,23592,33205.77
1548,23612,33227.24
1549,23636,33248.70
1550,23660,33270.17
1551,23680,33291.63
1552,23708,33313.10
1553,23720,33334.56
1554,23692,33356.02
1555,23628,33377.49
1556,23536,33398.95
1557,23444,33420.42
1558,23368,33441.88
1559,23324,33463.35
1560,23308,33484.81
1561,23308,33506.28
1562,23324,33527.74
1563,23348,33549.21
1564,23380,33570.67
1565,23412,33592.14
1566,23436,33613.60
1567,23456,33635.06
1568,23464,33656.53
1569,23472,33677.99
1570,23472,33699.46
1571,23476,33720.92
1572,23488,33742.39
1573,23492,33763.85
1574,23512,33785.32
1575,23524,33806.78
1576,23548,33828.25
1577,23572,33849.71
1578,23592,33871.18
1579,23620,33892.64
1580,23644,33914.10
1581,23672,33935.57
1582,23692,33957.03
1583,23716,33978.50
1584,23732,33999.96
1585,23704,34021.43
1586,23628,34042.89
1587,23528,34064.36
1588,23416,34085.82
1589,23332,34107.29
1590,23276,34128.75
1591,23256,34150.22
1592,23252,34171.68
1593,23264,34193.14
1594,23284,34214.61
1595,23308,34236.07
1596,23340,34257.54
1597,23376,34279.00
1598,23396,34300.47
1599,23412,34321.93
1600,23420,34343.40
1601,23420,34364.86
1602,23420,34386.33
1603,23428,34407.79
1604,23436,34429.26
1605,23448,34450.72
1606,23468,34472.19
1607,23488,34493.65
1608,23516,34515.11
1609,23544,34536.58
1610,23572,34558.04
1611,23596,34579.51
1612,23624,34600.97
1613,23652,34622.44
1614,23680,34643.90
1615,23708,34665.37
1616,23716,34686.83
1617,23676,34708.30
1618,23592,34729.76
1619,23484,34751.23
1620,23376,34772.69
1621,23296,34794.15
1622,23240,34815.62
1623,23228,34837.08
1624,23228,34858.55
1625,23244,34880.01
1626,23272,34901.48
1627,23296,34922.94
1628,23328,34944.41
1629,23356,34965.87
1630,23380,34987.34
1631,23392,35008.80
1632,23404,35030.27
1633,23408,35051.73
1634,23412,35073.19
1635,23412,35094.66
1636,23420,35116.12
1637,23432,35137.59
1638,23452,35159.05
1639,23476,35180.52
1640,23504,35201.98
1641,23532,35223.45
1642,23560,35244.91
1643,23588,35266.38
1644,23620,35287.84
1645,23644,35309.31
1646,23672,35330.77
1647,23700,35352.23
1648,23716,35373.70
1649,23700,35395.16
1650,23636,35416.63
1651,23544,35438.09
1652,23432,35459.56
1653,23340,35481.02
1654,23280,35502.49
1655,23248,35523.95
1656,23244,35545.42
1657,23260,35566.88
1658,23288,35588.35
1659,23320,35609.81
1660,23356,35631.27
1661,23392,35652.74
1662,23420,35674.20
1663,23440,35695.67
1664,23452,35717.13
1665,23456,35738.60
1666,23452,35760.06
1667,23456,35781.53
1668,23460,35802.99
1669,23468,35824.46
1670,23480,35845.92
1671,23496,35867.39
1672,23524,35888.85
1673,23548,35910.31
1674,23568,35931.78
1675,23596,35953.24
1676,23620,35974.71
1677,23644,35996.17
1678,23672,36017.64
1679,23692,36039.10
1680,23696,36060.57
1681,23648,36082.03
1682,23568,36103.50
1683,23468,36124.96
1684,23368,36146.43
1685,23296,36167.89
1686,23260,36189.35
1687,23248,36210.82
1688,23256,36232.28
1689,23280,36253.75
1690,23312,36275.21
1691,23348,36296.68
1692,23384,36318.14
1693,23412,36339.61
1694,23428,36361.07
1695,23436,36382.54
1696,23436,36404.00
1697,23436,36425.47
1698,23436,36446.93
1699,23440,36468.40
1700,23448,36489.86
1701,23460,36511.32
1702,23476,36532.79
1703,23496,36554.25
1704,23520,36575.72
1705,23540,36597.18
1706,23568,36618.65
1707,23588,36640.11
1708,23612,36661.58
1709,23636,36683.04
1710,23648,36704.51
1711,23612,36725.97
1712,23536,36747.44
1713,23436,36768.90
1714,23336,36790.36
1715,23256,36811.83
1716,23216,36833.29
1717,23200,36854.76
1718,23216,36876.22
1719,23232,36897.69
1720,23268,36919.15
1721,23304,36940.62
1722,23340,36962.08
1723,23368,36983.55
1724,23380,37005.01
1725,23392,37026.48
1726,23388,37047.94
1727,23384,37069.40
1728,23380,37090.87
1729,23376,37112.33
1730,23380,37133.80
1731,23388,37155.26
1732,23404,37176.73
1733,23420,37198.19
1734,23436,37219.66
1735,23456,37241.12
1736,23476,37262.59
1737,23500,37284.05
1738,23524,37305.52
1739,23548,37326.98
1740,23548,37348.44
1741,23496,37369.91
1742,23400,37391.37
1743,23288,37412.84
1744,23180,37434.30
1745,23108,37455.77
1746,23072,37477.23
1747,23060,37498.70
1748,23068,37520.16
1749,23092,37541.63
1750,23120,37563.09
1751,23152,37584.56
1752,23188,37606.02
1753,23212,37627.48
1754,23232,37648.95
1755,23236,37670.41
1756,23244,37691.88
1757,23240,37713.34
1758,23240,37734.81
1759,23248,37756.27
1760,23252,37777.74
1761,23268,37799.20
1762,23292,37820.67
1763,23312,37842.13
1764,23336,37863.60
1765,23356,37885.06
1766,23384,37906.52
1767,23412,37927.99
1768,23432,37949.45
1769,23460,37970.92
1770,23472,37992.38
1771,23444,38013.85
1772,23360,38035.31
1773,23244,38056.78
1774,23120,38078.24
1775,23024,38099.71
1776,22968,38121.17
1777,22940,38142.64
1778,22940,38164.10
1779,22948,38185.56
1780,22968,38207.03
1781,22992,38228.49
1782,23020,38249.96
1783,23048,38271.42
1784,23072,38292.89
1785,23088,38314.35
1786,23096,38335.82
1787,23100,38357.28
1788,23104,38378.75
1789,23108,38400.21
1790,23112,38421.68
1791,23128,38443.14
1792,23144,38464.61
1793,23164,38486.07
1794,23188,38507.53
1795,23212,38529.00
1796,23236,38550.46
1797,23264,38571.93
1798,23288,38593.39
1799,23320,38614.86
1800,23344,38636.32
1801,23372,38657.79
1802,23392,38679.25
1803,23368,38700.72
1804,23296,38722.18
1805,23176,38743.65
1806,23056,38765.11
1807,22960,38786.57
1808,22900,38808.04
1809,22876,38829.50
1810,22872,38850.97
1811,22884,38872.43
1812,22908,38893.90
1813,22940,38915.36
1814,22972,38936.83
1815,23000,38958.29
1816,23020,38979.76
1817,23036,39001.22
1818,23044,39022.69
1819,23040,39044.15
1820,23040,39065.61
1821,23036,39087.08
1822,23044,39108.54
1823,23056,39130.01
1824,23068,39151.47
1825,23092,39172.94
1826,23104,39194.40
1827,23120,39215.87
1828,23136,39237.33
1829,23156,39258.80
1830,23176,39280.26
1831,23204,39301.73
1832,23232,39323.19
1833,23252,39344.65
1834,23276,39366.12
1835,23300,39387.58
1836,23308,39409.05
1837,23272,39430.51
1838,23188,39451.98
1839,23068,39473.44
1840,22960,39494.91
1841,22884,39516.37
1842,22844,39537.84
1843,22836,39559.30
1844,22848,39580.77
1845,22872,39602.23
1846,22908,39623.69
1847,22948,39645.16
1848,22984,39666.62
1849,23008,39688.09
1850,23028,39709.55
1851,23036,39731.02
1852,23044,39752.48
1853,23040,39773.95
1854,23040,39795.41
1855,23048,39816.88
1856,23056,39838.34
1857,23068,39859.81
1858,23084,39881.27
1859,23108,39902.73
1860,23136,39924.20
1861,23152,39945.66
1862,23176,39967.13
1863,23208,39988.59
1864,23232,40010.06
1865,23256,40031.52
1866,23276,40052.99
1867,23304,40074.45
1868,23324,40095.92
1869,23344,40117.38
1870,23360,40138.85
1871,23348,40160.31
1872,23280,40181.77
1873,23172,40203.24
1874,23048,40224.70
1875,22952,40246.17
1876,22884,40267.63
1877,22856,40289.10
1878,22852,40310.56
1879,22868,40332.03
1880,22900,40353.49
1881,22932,40374.96
1882,22972,40396.42
1883,23000,40417.89
1884,23028,40439.35
1885,23036,40460.81
1886,23040,40482.28
1887,23044,40503.74
1888,23032,40525.21
1889,23028,40546.67
1890,23032,40568.14
1891,23040,40589.60
1892,23060,40611.07
1893,23076,40632.53
1894,23096,40654.00
1895,23124,40675.46
1896,23148,40696.93
1897,23172,40718.39
1898,23196,40739.86
1899,23220,40761.32
1900,23240,40782.78
1901,23260,40804.25
1902,23272,40825.71
1903,23288,40847.18
1904,23296,40868.64
1905,23308,40890.11
1906,23316,40911.57
1907,23316,40933.04
1908,23276,40954.50
1909,23184,40975.97
1910,23056,40997.43
1911,22932,41018.90
1912,22828,41040.36
1913,22772,41061.82
1914,22744,41083.29
1915,22744,41104.75
1916,22760,41126.22
1917,22780,41147.68
1918,22812,41169.15
1919,22840,41190.61
1920,22868,41212.08
1921,22896,41233.54
1922,22912,41255.01
1923,22916,41276.47
1924,22920,41297.94
1925,22924,41319.40
1926,22928,41340.86
1927,22936,41362.33
1928,22948,41383.79
1929,22964,41405.26
1930,22992,41426.72
1931,23016,41448.19
1932,23044,41469.65
1933,23072,41491.12
1934,23100,41512.58
1935,23128,41534.05
1936,23160,41555.51
1937,23184,41576.98
1938,23212,41598.44
1939,23236,41619.90
1940,23260,41641.37
1941,23280,41662.83
1942,23300,41684.30
1943,23324,41705.76
1944,23340,41727.23
1945,23360,41748.69
1946,23380,41770.16
1947,23364,41791.62
1948,23296,41813.09
1949,23168,41834.55
1950,23024,41856.02
1951,22896,41877.48
1952,22812,41898.94
1953,22764,41920.41
1954,22748,41941.87
1955,22748,41963.34
1956,22764,41984.80
1957,22780,42006.27
1958,22812,42027.73
1959,22840,42049.20
1960,22864,42070.66
1961,22888,42092.13
1962,22900,42113.59
1963,22908,42135.06
1964,22916,42156.52
1965,22916,42177.98
1966,22924,42199.45
1967,22936,42220.91
1968,22944,42242.38
1969,22964,42263.84
1970,22988,42285.31
1971,23020,42306.77
1972,23048,42328.24
1973,23076,42349.70
1974,23104,42371.17
1975,23132,42392.63
1976,23164,42414.10
1977,23188,42435.56
1978,23216,42457.02
1979,23244,42478.49
1980,23268,42499.95
1981,23292,42521.42
1982,23312,42542.88
1983,23332,42564.35
1984,23352,42585.81
1985,23368,42607.28
1986,23384,42628.74
1987,23404,42650.21
1988,23416,42671.67
1989,23400,42693.14
1990,23332,42714.60
1991,23208,42736.07
1992,23072,42757.53
1993,22944,42778.99
1994,22860,42800.46
1995,22816,42821.92
1996,22804,42843.39
1997,22816,42864.85
1998,22836,42886.32
1999,22860,42907.78
2000,22892,42929.25
2001,22924,42950.71
2002,22948,42972.18
2003,22968,42993.64
2004,22980,43015.11
2005,22980,43036.57
2006,22984,43058.03
2007,22980,43079.50
2008,22980,43100.96
2009,22984,43122.43
2010,22996,43143.89
2011,23016,43165.36
2012,23036,43186.82
2013,23060,43208.29
2014,23092,43229.75
2015,23120,43251.22
2016,23152,43272.68
2017,23176,43294.15
2018,23204,43315.61
2019,23236,43337.07
2020,23260,43358.54
2021,23284,43380.00
2022,23304,43401.47
2023,23324,43422.93
2024,23348,43444.40
2025,23364,43465.86
2026,23384,43487.33
2027,23404,43508.79
2028,23388,43530.26
2029,23332,43551.72
2030,23224,43573.19
2031,23104,43594.65
2032,22992,43616.11
2033,22920,43637.58
2034,22880,43659.04
2035,22876,43680.51
2036,22892,43701.97
2037,22924,43723.44
2038,22956,43744.90
2039,22996,43766.37
2040,23032,43787.83
2041,23060,43809.30
2042,23080,43830.76
2043,23092,43852.23
2044,23088,43873.69
2045,23076,43895.15
2046,23072,43916.62
2047,23064,43938.08
2048,23068,43959.55
2049,23076,43981.01
2050,23088,44002.48
2051,23112,44023.94
2052,23132,44045.41
2053,23156,44066.87
2054,23180,44088.34
2055,23208,44109.80
2056,23232,44131.27
2057,23252,44152.73
2058,23280,44174.19
2059,23296,44195.66
2060,23316,44217.12
2061,23328,44238.59
2062,23344,44260.05
2063,23356,44281.52
2064,23372,44302.98
2065,23384,44324.45
2066,23364,44345.91
2067,23300,44367.38
2068,23184,44388.84
2069,23056,44410.31
2070,22940,44431.77
2071,22860,44453.23
2072,22816,44474.70
2073,22804,44496.16
2074,22816,44517.63
2075,22836,44539.09
2076,22864,44560.56
2077,22900,44582.02
2078,22932,44603.49
2079,22960,44624.95
2080,22980,44646.42
2081,22996,44667.88
2082,22996,44689.35
2083,22992,44710.81
2084,22992,44732.28
2085,22996,44753.74
2086,23004,44775.20
2087,23012,44796.67
2088,23032,44818.13
2089,23052,44839.60
2090,23072,44861.06
2091,23100,44882.53
2092,23124,44903.99
2093,23148,44925.46
2094,23172,44946.92
2095,23200,44968.39
2096,23224,44989.85
2097,23252,45011.32
2098,23276,45032.78
2099,23300,45054.24
2100,23324,45075.71
2101,23340,45097.17
2102,23360,45118.64
2103,23376,45140.10
2104,23392,45161.57
2105,23372,45183.03
2106,23292,45204.50
2107,23168,45225.96
2108,23024,45247.43
2109,22900,45268.89
2110,22812,45290.36
2111,22764,45311.82
2112,22748,45333.28
2113,22756,45354.75
2114,22776,45376.21
2115,22800,45397.68
2116,22832,45419.14
2117,22860,45440.61
2118,22888,45462.07
2119,22912,45483.54
2120,22932,45505.00
2121,22944,45526.47
2122,22944,45547.93
2123,22948,45569.40
2124,22952,45590.86
2125,22960,45612.32
2126,22972,45633.79
2127,22984,45655.25
2128,23012,45676.72
2129,23032,45698.18
2130,23060,45719.65
2131,23092,45741.11
2132,23120,45762.58
2133,23152,45784.04
2134,23180,45805.51
2135,23208,45826.97
2136,23232,45848.44
2137,23260,45869.90
2138,23280,45891.36
2139,23296,45912.83
2140,23316,45934.29
2141,23336,45955.76
2142,23340,45977.22
2143,23304,45998.69
2144,23208,46020.15
2145,23080,46041.62
2146,22948,46063.08
2147,22844,46084.55
2148,22776,46106.01
2149,22744,46127.48
2150,22744,46148.94
2151,22760,46170.40
2152,22784,46191.87
2153,22808,46213.33
2154,22844,46234.80
2155,22876,46256.26
2156,22904,46277.73
2157,22924,46299.19
2158,22932,46320.66
2159,22932,46342.12
2160,22928,46363.59
2161,22928,46385.05
2162,22932,46406.52
2163,22944,46427.98
2164,22956,46449.44
2165,22976,46470.91
2166,23000,46492.37
2167,23024,46513.84
2168,23052,46535.30
2169,23084,46556.77
2170,23108,46578.23
2171,23136,46599.70
2172,23168,46621.16
2173,23188,46642.63
2174,23212,46664.09
2175,23228,46685.56
2176,23252,46707.02
2177,23268,46728.48
2178,23256,46749.95
2179,23200,46771.41
2180,23096,46792.88
2181,22972,46814.34
2182,22864,46835.81
2183,22784,46857.27
2184,22748,46878.74
2185,22740,46900.20
2186,22752,46921.67
2187,22788,46943.13
2188,22820,46964.60
2189,22856,46986.06
2190,22896,47007.53
2191,22920,47028.99
2192,22936,47050.45
2193,22944,47071.92
2194,22948,47093.38
2195,22940,47114.85
2196,22936,47136.31
2197,22932,47157.78
2198,22936,47179.24
2199,22948,47200.71
2200,22960,47222.17
2201,22980,47243.64
2202,23004,47265.10
2203,23028,47286.57
2204,23052,47308.03
2205,23080,47329.49
2206,23108,47350.96
2207,23132,47372.42
2208,23152,47393.89
2209,23168,47415.35
2210,23188,47436.82
2211,23208,47458.28
2212,23204,47479.75
2213,23148,47501.21
2214,23040,47522.68
2215,22908,47544.14
2216,22784,47565.61
2217,22692,47587.07
2218,22644,47608.53
2219,22624,47630.00
2220,22628,47651.46
2221,22648,47672.93
2222,22676,47694.39
2223,22712,47715.86
2224,22740,47737.32
2225,22768,47758.79
2226,22788,47780.25
2227,22804,47801.72
2228,22800,47823.18
2229,22804,47844.65
2230,22800,47866.11
2231,22804,47887.57
2232,22812,47909.04
2233,22824,47930.50
2234,22840,47951.97
2235,22864,47973.43
2236,22892,47994.90
2237,22912,48016.36
2238,22936,48037.83
2239,22964,48059.29
2240,22992,48080.76
2241,23016,48102.22
2242,23040,48123.69
2243,23060,48145.15
2244,23084,48166.61
2245,23104,48188.08
2246,23112,48209.54
2247,23080,48231.01
2248,22984,48252.47
2249,22848,48273.94
2250,22708,48295.40
2251,22608,48316.87
2252,22548,48338.33
2253,22520,48359.80
2254,22520,48381.26
2255,22540,48402.73
2256,22564,48424.19
2257,22592,48445.65
2258,22632,48467.12
2259,22656,48488.58
2260,22684,48510.05
2261,22700,48531.51
2262,22708,48552.98
2263,22712,48574.44
2264,22720,48595.91
2265,22724,48617.37
2266,22728,48638.84
2267,22740,48660.30
2268,22760,48681.77
2269,22780,48703.23
2270,22800,48724.69
2271,22832,48746.16
2272,22856,48767.62
2273,22884,48789.09
2274,22912,48810.55
2275,22940,48832.02
2276,22964,48853.48
2277,22988,48874.95
2278,23012,48896.41
2279,23032,48917.88
2280,23056,48939.34
2281,23072,48960.81
2282,23080,48982.27
2283,23044,49003.74
2284,22948,49025.20
2285,22812,49046.66
2286,22676,49068.13
2287,22568,49089.59
2288,22508,49111.06
2289,22488,49132.52
2290,22488,49153.99
2291,22508,49175.45
2292,22536,49196.92
2293,22568,49218.38
2294,22600,49239.85
2295,22632,49261.31
2296,22660,49282.78
2297,22680,49304.24
2298,22692,49325.70
2299,22700,49347.17
2300,22704,49368.63
2301,22704,49390.10
2302,22712,49411.56
2303,22724,49433.03
2304,22740,49454.49
2305,22764,49475.96
2306,22784,49497.42
2307,22816,49518.89
2308,22836,49540.35
2309,22868,49561.82
2310,22888,49583.28
2311,22916,49604.74
2312,22944,49626.21
2313,22972,49647.67
2314,22992,49669.14
2315,23012,49690.60
2316,23028,49712.07
2317,23044,49733.53
2318,23064,49755.00
2319,23080,49776.46
2320,23084,49797.93
2321,23044,49819.39
2322,22952,49840.86
2323,22820,49862.32
2324,22688,49883.78
2325,22588,49905.25
2326,22528,49926.71
2327,22512,49948.18
2328,22520,49969.64
2329,22544,49991.11
2330,22572,50012.57
2331,22608,50034.04
2332,22644,50055.50
2333,22676,50076.97
2334,22696,50098.43
2335,22716,50119.90
2336,22720,50141.36
2337,22720,50162.82
2338,22712,50184.29
2339,22712,50205.75
2340,22716,50227.22
2341,22724,50248.68
2342,22740,50270.15
2343,22760,50291.61
2344,22784,50313.08
2345,22812,50334.54
2346,22836,50356.01
2347,22864,50377.47
2348,22896,50398.94
2349,22920,50420.40
2350,22944,50441.86
2351,22964,50463.33
2352,22984,50484.79
2353,23000,50506.26
2354,23020,50527.72
2355,23036,50549.19
2356,23048,50570.65
2357,23012,50592.12
2358,22928,50613.58
2359,22800,50635.05
2360,22684,50656.51
2361,22596,50677.98
2362,22548,50699.44
2363,22536,50720.90
2364,22548,50742.37
2365,22576,50763.83
2366,22616,50785.30
2367,22656,50806.76
2368,22704,50828.23
2369,22740,50849.69
2370,22768,50871.16
2371,22780,50892.62
2372,22780,50914.09
2373,22772,50935.55
2374,22768,50957.02
2375,22760,50978.48
2376,22760,50999.95
2377,22768,51021.41
2378,22784,51042.87
2379,22804,51064.34
2380,22824,51085.80
2381,22848,51107.27
2382,22880,51128.73
2383,22908,51150.20
2384,22932,51171.66
2385,22952,51193.13
2386,22972,51214.59
2387,22984,51236.06
2388,22996,51257.52
2389,23004,51278.99
2390,23020,51300.45
2391,23032,51321.91
2392,22996,51343.38
2393,22912,51364.84
2394,22780,51386.31
2395,22640,51407.77
2396,22536,51429.24
2397,22476,51450.70
2398,22452,51472.17
2399,22460,51493.63
2400,22488,51515.10
2401,22524,51536.56
2402,22560,51558.03
2403,22600,51579.49
2404,22636,51600.95
2405,22668,51622.42
2406,22688,51643.88
2407,22704,51665.35
2408,22708,51686.81
2409,22704,51708.28
2410,22704,51729.74
2411,22712,51751.21
2412,22720,51772.67
2413,22736,51794.14
2414,22756,51815.60
2415,22784,51837.07
2416,22812,51858.53
2417,22840,51879.99
2418,22864,51901.46
2419,22896,51922.92
2420,22920,51944.39
2421,22944,51965.85
2422,22968,51987.32
2423,22988,52008.78
2424,23008,52030.25
2425,23028,52051.71
2426,23040,52073.18
2427,23060,52094.64
2428,23072,52116.11
2429,23044,52137.57
2430,22952,52159.03
2431,22812,52180.50
2432,22660,52201.96
2433,22532,52223.43
2434,22460,52244.89
2435,22432,52266.36
2436,22432,52287.82
2437,22456,52309.29
2438,22484,52330.75
2439,22516,52352.22
2440,22548,52373.68
2441,22584,52395.15
2442,22616,52416.61
2443,22640,52438.07
2444,22656,52459.54
2445,22668,52481.00
2446,22672,52502.47
2447,22676,52523.93
2448,22680,52545.40
2449,22688,52566.86
2450,22704,52588.33
2451,22724,52609.79
2452,22752,52631.26
2453,22780,52652.72
2454,22808,52674.19
2455,22836,52695.65
2456,22868,52717.11
2457,22896,52738.58
2458,22924,52760.04
2459,22948,52781.51
2460,22972,52802.97
2461,22992,52824.44
2462,23016,52845.90
2463,23036,52867.37
2464,23060,52888.83
2465,23080,52910.30
2466,23092,52931.76
2467,23068,52953.23
2468,22984,52974.69
2469,22840,52996.16
2470,22692,53017.62
2471,22568,53039.08
2472,22484,53060.55
2473,22456,53082.01
2474,22456,53103.48
2475,22476,53124.94
2476,22512,53146.41
2477,22544,53167.87
2478,22584,53189.34
2479,22620,53210.80
2480,22648,53232.27
2481,22672,53253.73
2482,22684,53275.20
2483,22692,53296.66
2484,22692,53318.12
2485,22692,53339.59
2486,22696,53361.05
2487,22704,53382.52
2488,22720,53403.98
2489,22744,53425.45
2490,22768,53446.91
2491,22792,53468.38
2492,22820,53489.84
2493,22852,53511.31
2494,22880,53532.77
2495,22908,53554.24
2496,22936,53575.70
2497,22964,53597.16
2498,22988,53618.63
2499,23012,53640.09
2500,23032,53661.56
2501,23056,53683.02
2502,23072,53704.49
2503,23092,53725.95
2504,23104,53747.42
2505,23092,53768.88
2506,23024,53790.35
2507,22896,53811.81
2508,22760,53833.28
2509,22640,53854.74
2510,22564,53876.20
2511,22532,53897.67
2512,22532,53919.13
2513,22560,53940.60
2514,22600,53962.06
2515,22644,53983.53
2516,22688,54004.99
2517,22732,54026.46
2518,22760,54047.92
2519,22784,54069.39
2520,22792,54090.85
2521,22788,54112.32
2522,22780,54133.78
2523,22776,54155.24
2524,22776,54176.71
2525,22780,54198.17
2526,22796,54219.64
2527,22816,54241.10
2528,22836,54262.57
2529,22868,54284.03
2530,22896,54305.50
2531,22920,54326.96
2532,22952,54348.43
2533,22976,54369.89
2534,23004,54391.36
2535,23028,54412.82
2536,23048,54434.28
2537,23068,54455.75
2538,23088,54477.21
2539,23104,54498.68
2540,23076,54520.14
2541,22992,54541.61
2542,22860,54563.07
2543,22724,54584.54
2544,22612,54606.00
2545,22552,54627.47
2546,22524,54648.93
2547,22544,54670.40
2548,22572,54691.86
2549,22616,54713.32
2550,22664,54734.79
2551,22712,54756.25
2552,22756,54777.72
2553,22784,54799.18
2554,22800,54820.65
2555,22800,54842.11
2556,22788,54863.58
2557,22772,54885.04
2558,22764,54906.51
2559,22764,54927.97
2560,22776,54949.44
2561,22792,54970.90
2562,22816,54992.36
2563,22840,55013.83
2564,22868,55035.29
2565,22900,55056.76
2566,22928,55078.22
2567,22956,55099.69
2568,22980,55121.15
2569,23000,55142.62
2570,23024,55164.08
2571,23048,55185.55
2572,23068,55207.01
2573,23064,55228.48
2574,22996,55249.94
2575,22860,55271.41
2576,22704,55292.87
2577,22576,55314.33
2578,22488,55335.80
2579,22448,55357.26
2580,22448,55378.73
2581,22472,55400.19
2582,22504,55421.66
2583,22544,55443.12
2584,22588,55464.59
2585,22628,55486.05
2586,22664,55507.52
2587,22696,55528.98
2588,22712,55550.45
2589,22720,55571.91
2590,22724,55593.37
2591,22724,55614.84
2592,22724,55636.30
2593,22732,55657.77
2594,22748,55679.23
2595,22776,55700.70
2596,22796,55722.16
2597,22828,55743.63
2598,22856,55765.09
2599,22888,55786.56
2600,22912,55808.02
2601,22944,55829.49
2602,22972,55850.95
2603,23000,55872.41
2604,23024,55893.88
2605,23056,55915.34
2606,23076,55936.81
2607,23060,55958.27
2608,22976,55979.74
2609,22832,56001.20
2610,22680,56022.67
2611,22552,56044.13
2612,22476,56065.60
2613,22440,56087.06
2614,22440,56108.53
2615,22468,56129.99
2616,22496,56151.45
2617,22532,56172.92
2618,22576,56194.38
2619,22616,56215.85
2620,22652,56237.31
2621,22684,56258.78
2622,22704,56280.24
2623,22716,56301.71
2624,22728,56323.17
2625,22728,56344.64
2626,22732,56366.10
2627,22740,56387.57
2628,22752,56409.03
2629,22772,56430.49
2630,22796,56451.96
2631,22824,56473.42
2632,22852,56494.89
2633,22888,56516.35
2634,22916,56537.82
2635,22944,56559.28
2636,22972,56580.75
2637,23000,56602.21
2638,23024,56623.68
2639,23052,56645.14
2640,23076,56666.61
2641,23088,56688.07
2642,23040,56709.53
2643,22932,56731.00
2644,22780,56752.46
2645,22640,56773.93
2646,22540,56795.39
2647,22492,56816.86
2648,22480,56838.32
2649,22500,56859.79
2650,22532,56881.25
2651,22572,56902.72
2652,22624,56924.18
2653,22668,56945.65
2654,22712,56967.11
2655,22740,56988.57
2656,22768,57010.04
2657,22772,57031.50
2658,22772,57052.97
2659,22768,57074.43
2660,22768,57095.90
2661,22772,57117.36
2662,22784,57138.83
2663,22800,57160.29
2664,22820,57181.76
2665,22848,57203.22
2666,22872,57224.69
2667,22900,57246.15
2668,22928,57267.62
2669,22956,57289.08
2670,22980,57310.54
2671,23008,57332.01
2672,23036,57353.47
2673,23056,57374.94
2674,23028,57396.40
2675,22944,57417.87
2676,22816,57439.33
2677,22684,57460.80
2678,22584,57482.26
2679,22532,57503.73
2680,22520,57525.19
2681,22536,57546.66
2682,22572,57568.12
2683,22620,57589.58
2684,22672,57611.05
2685,22724,57632.51
2686,22772,57653.98
2687,22800,57675.44
2688,22816,57696.91
2689,22820,57718.37
2690,22812,57739.84
2691,22808,57761.30
2692,22800,57782.77
2693,22804,57804.23
2694,22820,57825.70
2695,22832,57847.16
2696,22852,57868.62
2697,22876,57890.09
2698,22896,57911.55
2699,22924,57933.02
2700,22948,57954.48
2701,22972,57975.95
2702,23000,57997.41
2703,23024,58018.88
2704,23036,58040.34
2705,23000,58061.81
2706,22900,58083.27
2707,22764,58104.74
2708,22628,58126.20
2709,22528,58147.66
2710,22476,58169.13
2711,22464,58190.59
2712,22480,58212.06
2713,22516,58233.52
2714,22556,58254.99
2715,22604,58276.45
2716,22648,58297.92
2717,22684,58319.38
2718,22708,58340.85
2719,22728,58362.31
2720,22732,58383.78
2721,22732,58405.24
2722,22736,58426.70
2723,22740,58448.17
2724,22748,58469.63
2725,22764,58491.10
2726,22784,58512.56
2727,22808,58534.03
2728,22836,58555.49
2729,22868,58576.96
2730,22896,58598.42
2731,22924,58619.89
2732,22952,58641.35
2733,22984,58662.82
2734,23012,58684.28
2735,23024,58705.74
2736,22992,58727.21
2737,22892,58748.67
2738,22756,58770.14
2739,22624,58791.60
2740,22532,58813.07
2741,22484,58834.53
2742,22472,58856.00
2743,22488,58877.46
2744,22524,58898.93
2745,22560,58920.39
2746,22596,58941.86
2747,22636,58963.32
2748,22676,58984.78
2749,22704,59006.25
2750,22724,59027.71
2751,22736,59049.18
2752,22740,59070.64
2753,22744,59092.11
2754,22748,59113.57
2755,22760,59135.04
2756,22776,59156.50
2757,22796,59177.97
2758,22816,59199.43
2759,22844,59220.90
2760,22872,59242.36
2761,22900,59263.83
2762,22924,59285.29
2763,22952,59306.75
2764,22980,59328.22
2765,23012,59349.68
2766,23036,59371.15
2767,23040,59392.61
2768,22980,59414.08
2769,22868,59435.54
2770,22736,59457.01
2771,22624,59478.47
2772,22544,59499.94
2773,22516,59521.40
2774,22520,59542.87
2775,22540,59564.33
2776,22568,59585.79
2777,22608,59607.26
2778,22644,59628.72
2779,22688,59650.19
2780,22724,59671.65
2781,22756,59693.12
2782,22776,59714.58
2783,22792,59736.05
2784,22800,59757.51
2785,22808,59778.98
2786,22820,59800.44
2787,22840,59821.91
2788,22856,59843.37
2789,22880,59864.83
2790,22908,59886.30
2791,22940,59907.76
2792,22976,59929.23
2793,23008,59950.69
2794,23040,59972.16
2795,23072,59993.62
2796,23108,60015.09
2797,23132,60036.55
2798,23168,60058.02
2799,23196,60079.48
2800,23212,60100.95
2801,23180,60122.41
2802,23108,60143.87
2803,23004,60165.34
2804,22904,60186.80
2805,22832,60208.27
2806,22800,60229.73
2807,22792,60251.20
2808,22812,60272.66
2809,22840,60294.13
2810,22872,60315.59
2811,22912,60337.06
2812,22948,60358.52
2813,22988,60379.99
2814,23016,60401.45
2815,23040,60422.91
2816,23056,60444.38
2817,23064,60465.84
2818,23080,60487.31
2819,23092,60508.77
2820,23108,60530.24
2821,23132,60551.70
2822,23156,60573.17
2823,23184,60594.63
2824,23216,60616.10
2825,23252,60637.56
2826,23288,60659.03
2827,23324,60680.49
2828,23356,60701.95
2829,23392,60723.42
2830,23424,60744.88
2831,23456,60766.35
2832,23488,60787.81
2833,23496,60809.28
2834,23476,60830.74
2835,23432,60852.21
2836,23372,60873.67
2837,23320,60895.14
2838,23280,60916.60
2839,23268,60938.07
2840,23276,60959.53
2841,23296,60980.99
2842,23320,61002.46
2843,23352,61023.92
2844,23388,61045.39
2845,23420,61066.85
2846,23448,61088.32
2847,23476,61109.78
2848,23492,61131.25
2849,23504,61152.71
2850,23520,61174.18
2851,23536,61195.64
2852,23540,61217.11
2853,23564,61238.57
2854,23584,61260.03
2855,23604,61281.50
2856,23628,61302.96
2857,23648,61324.43
2858,23676,61345.89
2859,23700,61367.36
2860,23728,61388.82
2861,23752,61410.29
2862,23780,61431.75
2863,23804,61453.22
2864,23828,61474.68
2865,23848,61496.15
2866,23848,61517.61
2867,23824,61539.08
2868,23776,61560.54
2869,23728,61582.00
2870,23684,61603.47
2871,23656,61624.93
2872,23652,61646.40
2873,23656,61667.86
2874,23668,61689.33
2875,23688,61710.79
2876,23708,61732.26
2877,23732,61753.72
2878,23756,61775.19
2879,23772,61796.65
2880,23788,61818.12
2881,23796,61839.58
2882,23808,61861.04
2883,23816,61882.51
2884,23828,61903.97
2885,23844,61925.44
2886,23860,61946.90
2887,23876,61968.37
2888,23896,61989.83
2889,23916,62011.30
2890,23936,62032.76
2891,23960,62054.23
2892,23976,62075.69
2893,23996,62097.16
2894,24020,62118.62
2895,24040,62140.08
2896,24060,62161.55
2897,24080,62183.01
2898,24100,62204.48
2899,24120,62225.94
2900,24112,62247.41
2901,24088,62268.87
2902,24052,62290.34
2903,24012,62311.80
2904,23976,62333.27
2905,23956,62354.73
2906,23940,62376.20
2907,23940,62397.66
2908,23944,62419.12
2909,23956,62440.59
2910,23964,62462.05
2911,23980,62483.52
2912,23992,62504.98
2913,24000,62526.45
2914,24012,62547.91
2915,24020,62569.38
2916,24020,62590.84
2917,24028,62612.31
2918,24036,62633.77
2919,24036,62655.24
2920,24048,62676.70
2921,24060,62698.16
2922,24072,62719.63
2923,24084,62741.09
2924,24096,62762.56
2925,24116,62784.02
2926,24128,62805.49
2927,24144,62826.95
2928,24156,62848.42
2929,24172,62869.88
2930,24184,62891.35
2931,24200,62912.81
2932,24212,62934.28
2933,24224,62955.74
2934,24236,62977.20
2935,24232,62998.67
2936,24212,63020.13
2937,24180,63041.60
2938,24152,63063.06
2939,24128,63084.53
2940,24116,63105.99
2941,24112,63127.46
2942,24116,63148.92
2943,24124,63170.39
2944,24132,63191.85
2945,24144,63213.32
2946,24156,63234.78
2947,24164,63256.24
2948,24172,63277.71
2949,24176,63299.17
2950,24176,63320.64
2951,24180,63342.10
2952,24180,63363.57
2953,24180,63385.03
2954,24188,63406.50
2955,24188,63427.96
2956,24196,63449.43
2957,24204,63470.89
2958,24212,63492.36
2959,24224,63513.82
2960,24232,63535.29
2961,24244,63556.75
2962,24252,63578.21
2963,24264,63599.68
2964,24272,63621.14
2965,24280,63642.61
2966,24292,63664.07
2967,24300,63685.54
2968,24312,63707.00
2969,24304,63728.47
2970,24288,63749.93
2971,24264,63771.40
2972,24244,63792.86
2973,24232,63814.33
2974,24228,63835.79
2975,24232,63857.25
2976,24236,63878.72
2977,24244,63900.18
2978,24256,63921.65
2979,24268,63943.11
2980,24276,63964.58
2981,24292,63986.04
2982,24296,64007.51
2983,24300,64028.97
2984,24308,64050.44
2985,24308,64071.90
2986,24308,64093.37
2987,24312,64114.83
2988,24312,64136.29
2989,24320,64157.76
2990,24328,64179.22
2991,24336,64200.69
2992,24344,64222.15
2993,24356,64243.62
2994,24364,64265.08
2995,24372,64286.55
2996,24380,64308.01
2997,24388,64329.48
2998,24392,64350.94
2999,24400,64372.41
