Sample_Index,IR_Value,Timestamp_ms
0,20964,0.00
1,21412,19.97
2,21256,39.95
3,20668,59.92
4,20544,79.90
5,20564,99.87
6,20928,119.85
7,21308,139.82
8,21640,159.80
9,21884,179.77
10,22144,199.75
11,22536,219.72
12,22964,239.70
13,23288,259.67
14,23576,279.64
15,23812,299.62
16,23976,319.59
17,24076,339.57
18,24140,359.54
19,24184,379.52
20,24212,399.49
21,24236,419.47
22,24260,439.44
23,24288,459.42
24,24312,479.39
25,24308,499.37
26,24272,519.34
27,24204,539.31
28,24112,559.29
29,24032,579.26
30,23960,599.24
31,23896,619.21
32,23828,639.19
33,23748,659.16
34,23732,679.14
35,23740,699.11
36,23688,719.09
37,23644,739.06
38,23596,759.04
39,23552,779.01
40,23512,798.98
41,23464,818.96
42,23432,838.93
43,23400,858.91
44,23376,878.88
45,23360,898.86
46,23352,918.83
47,23348,938.81
48,23356,958.78
49,23360,978.76
50,23360,998.73
51,23360,1018.71
52,23368,1038.68
53,23364,1058.65
54,23364,1078.63
55,23380,1098.60
56,23384,1118.58
57,23388,1138.55
58,23392,1158.53
59,23396,1178.50
60,23396,1198.48
61,23404,1218.45
62,23412,1238.43
63,23424,1258.40
64,23432,1278.38
65,23416,1298.35
66,23364,1318.32
67,23280,1338.30
68,23192,1358.27
69,23112,1378.25
70,23052,1398.22
71,23016,1418.20
72,23000,1438.17
73,22992,1458.15
74,22988,1478.12
75,22996,1498.10
76,23008,1518.07
77,23016,1538.05
78,23012,1558.02
79,23004,1577.99
80,22992,1597.97
81,22972,1617.94
82,22956,1637.92
83,22944,1657.89
84,22936,1677.87
85,22928,1697.84
86,22924,1717.82
87,22928,1737.79
88,22932,1757.77
89,22928,1777.74
90,22928,1797.72
91,22928,1817.69
92,22928,1837.67
93,22928,1857.64
94,22932,1877.61
95,22932,1897.59
96,22932,1917.56
97,22932,1937.54
98,22924,1957.51
99,22912,1977.49
100,22880,1997.46
101,22820,2017.44
102,22744,2037.41
103,22660,2057.39
104,22588,2077.36
105,22548,2097.34
106,22524,2117.31
107,22524,2137.28
108,22540,2157.26
109,22560,2177.23
110,22588,2197.21
111,22616,2217.18
112,22632,2237.16
113,22640,2257.13
114,22640,2277.11
115,22640,2297.08
116,22644,2317.06
117,22656,2337.03
118,22672,2357.01
119,22688,2376.98
120,22704,2396.95
121,22728,2416.93
122,22748,2436.90
123,22768,2456.88
124,22784,2476.85
125,22804,2496.83
126,22824,2516.80
127,22840,2536.78
128,22852,2556.75
129,22868,2576.73
130,22884,2596.70
131,22900,2616.68
132,22920,2636.65
133,22940,2656.62
134,22940,2676.60
135,22900,2696.57
136,22816,2716.55
137,22716,2736.52
138,22632,2756.50
139,22572,2776.47
140,22540,2796.45
141,22532,2816.42
142,22536,2836.40
143,22548,2856.37
144,22564,2876.35
145,22580,2896.32
146,22588,2916.29
147,22596,2936.27
148,22600,2956.24
149,22596,2976.22
150,22596,2996.19
151,22592,3016.17
152,22596,3036.14
153,22604,3056.12
154,22624,3076.09
155,22644,3096.07
156,22668,3116.04
157,22688,3136.02
158,22720,3155.99
159,22744,3175.96
160,22776,3195.94
161,22800,3215.91
162,22820,3235.89
163,22832,3255.86
164,22848,3275.84
165,22864,3295.81
166,22876,3315.79
167,22888,3335.76
168,22900,3355.74
169,22912,3375.71
170,22908,3395.69
171,22856,3415.66
172,22764,3435.63
173,22664,3455.61
174,22584,3475.58
175,22532,3495.56
176,22504,3515.53
177,22500,3535.51
178,22512,3555.48
179,22524,3575.46
180,22548,3595.43
181,22564,3615.41
182,22584,3635.38
183,22600,3655.36
184,22604,3675.33
185,22600,3695.30
186,22596,3715.28
187,22596,3735.25
188,22600,3755.23
189,22612,3775.20
190,22624,3795.18
191,22640,3815.15
192,22664,3835.13
193,22692,3855.10
194,22716,3875.08
195,22748,3895.05
196,22780,3915.03
197,22812,3935.00
198,22836,3954.97
199,22856,3974.95
200,22880,3994.92
201,22904,4014.90
202,22932,4034.87
203,22948,4054.85
204,22948,4074.82
205,22924,4094.80
206,22872,4114.77
207,22800,4134.75
208,22732,4154.72
209,22676,4174.70
210,22648,4194.67
211,22640,4214.64
212,22640,4234.62
213,22652,4254.59
214,22672,4274.57
215,22688,4294.54
216,22708,4314.52
217,22716,4334.49
218,22720,4354.47
219,22724,4374.44
220,22732,4394.42
221,22744,4414.39
222,22760,4434.37
223,22776,4454.34
224,22792,4474.31
225,22816,4494.29
226,22836,4514.26
227,22864,4534.24
228,22884,4554.21
229,22908,4574.19
230,22932,4594.16
231,22952,4614.14
232,22972,4634.11
233,22992,4654.09
234,23020,4674.06
235,23044,4694.04
236,23068,4714.01
237,23076,4733.98
238,23056,4753.96
239,23020,4773.93
240,22976,4793.91
241,22940,4813.88
242,22912,4833.86
243,22904,4853.83
244,22908,4873.81
245,22916,4893.78
246,22932,4913.76
247,22952,4933.73
248,22972,4953.71
249,22996,4973.68
250,23004,4993.66
251,23016,5013.63
252,23028,5033.60
253,23032,5053.58
254,23040,5073.55
255,23048,5093.53
256,23064,5113.50
257,23080,5133.48
258,23104,5153.45
259,23128,5173.43
260,23148,5193.40
261,23172,5213.38
262,23192,5233.35
263,23208,5253.33
264,23232,5273.30
265,23252,5293.27
266,23272,5313.25
267,23292,5333.22
268,23312,5353.20
269,23328,5373.17
270,23344,5393.15
271,23348,5413.12
272,23332,5433.10
273,23304,5453.07
274,23280,5473.05
275,23260,5493.02
276,23252,5513.00
277,23256,5532.97
278,23264,5552.94
279,23276,5572.92
280,23288,5592.89
281,23300,5612.87
282,23308,5632.84
283,23320,5652.82
284,23328,5672.79
285,23336,5692.77
286,23336,5712.74
287,23344,5732.72
288,23340,5752.69
289,23352,5772.67
290,23360,5792.64
291,23372,5812.61
292,23384,5832.59
293,23396,5852.56
294,23412,5872.54
295,23428,5892.51
296,23444,5912.49
297,23460,5932.46
298,23472,5952.44
299,23484,5972.41
300,23500,5992.39
301,23516,6012.36
302,23532,6032.34
303,23540,6052.31
304,23544,6072.28
305,23532,6092.26
306,23512,6112.23
307,23492,6132.21
308,23484,6152.18
309,23480,6172.16
310,23488,6192.13
311,23492,6212.11
312,23508,6232.08
313,23520,6252.06
314,23532,6272.03
315,23540,6292.01
316,23552,6311.98
317,23552,6331.95
318,23552,6351.93
319,23548,6371.90
320,23548,6391.88
321,23548,6411.85
322,23556,6431.83
323,23564,6451.80
324,23572,6471.78
325,23580,6491.75
326,23588,6511.73
327,23596,6531.70
328,23608,6551.68
329,23616,6571.65
330,23624,6591.62
331,23636,6611.60
332,23648,6631.57
333,23660,6651.55
334,23660,6671.52
335,23648,6691.50
336,23628,6711.47
337,23612,6731.45
338,23596,6751.42
339,23592,6771.40
340,23604,6791.37
341,23608,6811.35
342,23620,6831.32
343,23632,6851.29
344,23640,6871.27
345,23652,6891.24
346,23660,6911.22
347,23664,6931.19
348,23664,6951.17
349,23664,6971.14
350,23664,6991.12
351,23668,7011.09
352,23676,7031.07
353,23680,7051.04
354,23684,7071.02
355,23692,7090.99
356,23696,7110.96
357,23704,7130.94
358,23712,7150.91
359,23720,7170.89
360,23728,7190.86
361,23740,7210.84
362,23748,7230.81
363,23752,7250.79
364,23760,7270.76
365,23760,7290.74
366,23756,7310.71
367,23740,7330.69
368,23720,7350.66
369,23704,7370.63
370,23700,7390.61
371,23700,7410.58
372,23708,7430.56
373,23720,7450.53
374,23728,7470.51
375,23740,7490.48
376,23752,7510.46
377,23756,7530.43
378,23764,7550.41
379,23768,7570.38
380,23768,7590.36
381,23768,7610.33
382,23768,7630.30
383,23768,7650.28
384,23776,7670.25
385,23780,7690.23
386,23788,7710.20
387,23796,7730.18
388,23800,7750.15
389,23808,7770.13
390,23812,7790.10
391,23820,7810.08
392,23820,7830.05
393,23828,7850.03
394,23832,7870.00
395,23840,7889.97
396,23848,7909.95
397,23856,7929.92
398,23856,7949.90
399,23848,7969.87
400,23824,7989.85
401,23816,8009.82
402,23800,8029.80
403,23792,8049.77
404,23788,8069.75
405,23796,8089.72
406,23804,8109.70
407,23816,8129.67
408,23824,8149.65
409,23840,8169.62
410,23840,8189.59
411,23844,8209.57
412,23844,8229.54
413,23848,8249.52
414,23848,8269.49
415,23844,8289.47
416,23848,8309.44
417,23856,8329.42
418,23860,8349.39
419,23864,8369.37
420,23872,8389.34
421,23876,8409.32
422,23880,8429.29
423,23884,8449.26
424,23892,8469.24
425,23900,8489.21
426,23904,8509.19
427,23912,8529.16
428,23912,8549.14
429,23912,8569.11
430,23904,8589.09
431,23884,8609.06
432,23864,8629.04
433,23848,8649.01
434,23828,8668.99
435,23824,8688.96
436,23824,8708.93
437,23828,8728.91
438,23832,8748.88
439,23840,8768.86
440,23844,8788.83
441,23844,8808.81
442,23844,8828.78
443,23844,8848.76
444,23840,8868.73
445,23836,8888.71
446,23832,8908.68
447,23832,8928.66
448,23832,8948.63
449,23836,8968.60
450,23840,8988.58
451,23844,9008.55
452,23848,9028.53
453,23856,9048.50
454,23856,9068.48
455,23864,9088.45
456,23868,9108.43
457,23872,9128.40
458,23876,9148.38
459,23880,9168.35
460,23872,9188.33
461,23856,9208.30
462,23832,9228.27
463,23800,9248.25
464,23772,9268.22
465,23756,9288.20
466,23740,9308.17
467,23736,9328.15
468,23732,9348.12
469,23728,9368.10
470,23728,9388.07
471,23724,9408.05
472,23720,9428.02
473,23720,9448.00
474,23708,9467.97
475,23700,9487.94
476,23692,9507.92
477,23684,9527.89
478,23680,9547.87
479,23676,9567.84
480,23672,9587.82
481,23668,9607.79
482,23676,9627.77
483,23680,9647.74
484,23684,9667.72
485,23692,9687.69
486,23696,9707.67
487,23696,9727.64
488,23704,9747.61
489,23708,9767.59
490,23712,9787.56
491,23708,9807.54
492,23692,9827.51
493,23656,9847.49
494,23620,9867.46
495,23584,9887.44
496,23552,9907.41
497,23536,9927.39
498,23524,9947.36
499,23520,9967.34
500,23520,9987.31
501,23520,10007.28
502,23524,10027.26
503,23524,10047.23
504,23524,10067.21
505,23512,10087.18
506,23504,10107.16
507,23492,10127.13
508,23480,10147.11
509,23476,10167.08
510,23468,10187.06
511,23468,10207.03
512,23468,10227.01
513,23472,10246.98
514,23476,10266.95
515,23480,10286.93
516,23480,10306.90
517,23484,10326.88
518,23488,10346.85
519,23496,10366.83
520,23504,10386.80
521,23512,10406.78
522,23508,10426.75
523,23488,10446.73
524,23464,10466.70
525,23424,10486.68
526,23380,10506.65
527,23348,10526.62
528,23332,10546.60
529,23320,10566.57
530,23324,10586.55
531,23332,10606.52
532,23340,10626.50
533,23348,10646.47
534,23352,10666.45
535,23348,10686.42
536,23344,10706.40
537,23340,10726.37
538,23328,10746.35
539,23324,10766.32
540,23316,10786.29
541,23316,10806.27
542,23312,10826.24
543,23312,10846.22
544,23320,10866.19
545,23324,10886.17
546,23324,10906.14
547,23328,10926.12
548,23332,10946.09
549,23336,10966.07
550,23348,10986.04
551,23356,11006.02
552,23356,11025.99
553,23340,11045.96
554,23300,11065.94
555,23248,11085.91
556,23196,11105.89
557,23160,11125.86
558,23140,11145.84
559,23132,11165.81
560,23136,11185.79
561,23144,11205.76
562,23160,11225.74
563,23172,11245.71
564,23180,11265.69
565,23184,11285.66
566,23184,11305.64
567,23176,11325.61
568,23168,11345.58
569,23164,11365.56
570,23168,11385.53
571,23164,11405.51
572,23172,11425.48
573,23188,11445.46
574,23192,11465.43
575,23200,11485.41
576,23216,11505.38
577,23220,11525.36
578,23236,11545.33
579,23244,11565.31
580,23252,11585.28
581,23260,11605.25
582,23276,11625.23
583,23284,11645.20
584,23284,11665.18
585,23260,11685.15
586,23208,11705.13
587,23148,11725.10
588,23096,11745.08
589,23060,11765.05
590,23048,11785.03
591,23044,11805.00
592,23048,11824.98
593,23064,11844.95
594,23076,11864.92
595,23096,11884.90
596,23100,11904.87
597,23100,11924.85
598,23104,11944.82
599,23104,11964.80
600,23096,11984.77
601,23092,12004.75
602,23096,12024.72
603,23096,12044.70
604,23108,12064.67
605,23120,12084.65
606,23132,12104.62
607,23144,12124.59
608,23160,12144.57
609,23176,12164.54
610,23184,12184.52
611,23200,12204.49
612,23216,12224.47
613,23224,12244.44
614,23236,12264.42
615,23244,12284.39
616,23260,12304.37
617,23264,12324.34
618,23256,12344.32
619,23224,12364.29
620,23172,12384.26
621,23116,12404.24
622,23076,12424.21
623,23052,12444.19
624,23044,12464.16
625,23044,12484.14
626,23052,12504.11
627,23072,12524.09
628,23088,12544.06
629,23104,12564.04
630,23112,12584.01
631,23116,12603.99
632,23108,12623.96
633,23100,12643.93
634,23088,12663.91
635,23088,12683.88
636,23088,12703.86
637,23092,12723.83
638,23108,12743.81
639,23116,12763.78
640,23128,12783.76
641,23140,12803.73
642,23156,12823.71
643,23164,12843.68
644,23180,12863.66
645,23192,12883.63
646,23200,12903.60
647,23216,12923.58
648,23220,12943.55
649,23208,12963.53
650,23168,12983.50
651,23120,13003.48
652,23060,13023.45
653,23012,13043.43
654,22984,13063.40
655,22972,13083.38
656,22976,13103.35
657,22992,13123.33
658,23008,13143.30
659,23032,13163.27
660,23044,13183.25
661,23056,13203.22
662,23056,13223.20
663,23048,13243.17
664,23036,13263.15
665,23032,13283.12
666,23028,13303.10
667,23032,13323.07
668,23036,13343.05
669,23044,13363.02
670,23060,13383.00
671,23072,13402.97
672,23084,13422.94
673,23096,13442.92
674,23108,13462.89
675,23124,13482.87
676,23140,13502.84
677,23152,13522.82
678,23168,13542.79
679,23180,13562.77
680,23176,13582.74
681,23148,13602.72
682,23092,13622.69
683,23028,13642.67
684,22968,13662.64
685,22924,13682.61
686,22908,13702.59
687,22912,13722.56
688,22920,13742.54
689,22940,13762.51
690,22956,13782.49
691,22980,13802.46
692,22988,13822.44
693,22996,13842.41
694,23000,13862.39
695,22996,13882.36
696,22992,13902.34
697,22992,13922.31
698,22996,13942.28
699,22996,13962.26
700,23012,13982.23
701,23024,14002.21
702,23036,14022.18
703,23052,14042.16
704,23068,14062.13
705,23080,14082.11
706,23100,14102.08
707,23116,14122.06
708,23128,14142.03
709,23144,14162.01
710,23156,14181.98
711,23172,14201.95
712,23168,14221.93
713,23136,14241.90
714,23084,14261.88
715,23020,14281.85
716,22964,14301.83
717,22924,14321.80
718,22908,14341.78
719,22908,14361.75
720,22920,14381.73
721,22940,14401.70
722,22964,14421.68
723,22992,14441.65
724,23008,14461.63
725,23016,14481.60
726,23020,14501.57
727,23016,14521.55
728,23008,14541.52
729,23008,14561.50
730,23008,14581.47
731,23012,14601.45
732,23020,14621.42
733,23032,14641.40
734,23048,14661.37
735,23064,14681.35
736,23080,14701.32
737,23096,14721.30
738,23112,14741.27
739,23128,14761.24
740,23140,14781.22
741,23156,14801.19
742,23168,14821.17
743,23172,14841.14
744,23144,14861.12
745,23096,14881.09
746,23028,14901.07
747,22968,14921.04
748,22916,14941.02
749,22892,14960.99
750,22884,14980.97
751,22896,15000.94
752,22908,15020.91
753,22936,15040.89
754,22960,15060.86
755,22980,15080.84
756,22988,15100.81
757,22992,15120.79
758,22988,15140.76
759,22980,15160.74
760,22968,15180.71
761,22964,15200.69
762,22960,15220.66
763,22964,15240.64
764,22972,15260.61
765,22984,15280.58
766,23000,15300.56
767,23012,15320.53
768,23032,15340.51
769,23048,15360.48
770,23068,15380.46
771,23084,15400.43
772,23100,15420.41
773,23092,15440.38
774,23052,15460.36
775,22988,15480.33
776,22912,15500.31
777,22848,15520.28
778,22808,15540.25
779,22788,15560.23
780,22796,15580.20
781,22812,15600.18
782,22832,15620.15
783,22860,15640.13
784,22884,15660.10
785,22896,15680.08
786,22904,15700.05
787,22904,15720.03
788,22896,15740.00
789,22888,15759.98
790,22884,15779.95
791,22884,15799.92
792,22888,15819.90
793,22900,15839.87
794,22916,15859.85
795,22932,15879.82
796,22952,15899.80
797,22972,15919.77
798,22996,15939.75
799,23016,15959.72
800,23032,15979.70
801,23048,15999.67
802,23060,16019.65
803,23040,16039.62
804,22980,16059.59
805,22900,16079.57
806,22820,16099.54
807,22760,16119.52
808,22728,16139.49
809,22724,16159.47
810,22732,16179.44
811,22752,16199.42
812,22776,16219.39
813,22808,16239.37
814,22832,16259.34
815,22848,16279.32
816,22860,16299.29
817,22860,16319.26
818,22856,16339.24
819,22852,16359.21
820,22848,16379.19
821,22852,16399.16
822,22860,16419.14
823,22868,16439.11
824,22880,16459.09
825,22904,16479.06
826,22920,16499.04
827,22940,16519.01
828,22960,16538.99
829,22980,16558.96
830,22996,16578.93
831,23016,16598.91
832,23028,16618.88
833,23012,16638.86
834,22968,16658.83
835,22896,16678.81
836,22820,16698.78
837,22756,16718.76
838,22720,16738.73
839,22708,16758.71
840,22712,16778.68
841,22736,16798.66
842,22768,16818.63
843,22796,16838.60
844,22824,16858.58
845,22840,16878.55
846,22852,16898.53
847,22852,16918.50
848,22848,16938.48
849,22840,16958.45
850,22828,16978.43
851,22832,16998.40
852,22840,17018.38
853,22856,17038.35
854,22872,17058.33
855,22884,17078.30
856,22904,17098.27
857,22924,17118.25
858,22940,17138.22
859,22960,17158.20
860,22976,17178.17
861,22992,17198.15
862,22980,17218.12
863,22944,17238.10
864,22876,17258.07
865,22800,17278.05
866,22736,17298.02
867,22696,17318.00
868,22676,17337.97
869,22680,17357.94
870,22700,17377.92
871,22724,17397.89
872,22748,17417.87
873,22772,17437.84
874,22788,17457.82
875,22792,17477.79
876,22784,17497.77
877,22780,17517.74
878,22772,17537.72
879,22764,17557.69
880,22768,17577.67
881,22780,17597.64
882,22792,17617.62
883,22808,17637.59
884,22828,17657.56
885,22840,17677.54
886,22860,17697.51
887,22876,17717.49
888,22900,17737.46
889,22916,17757.44
890,22912,17777.41
891,22876,17797.39
892,22804,17817.36
893,22720,17837.34
894,22648,17857.31
895,22600,17877.29
896,22584,17897.26
897,22584,17917.23
898,22608,17937.21
899,22632,17957.18
900,22664,17977.16
901,22688,17997.13
902,22708,18017.11
903,22716,18037.08
904,22716,18057.06
905,22712,18077.03
906,22700,18097.01
907,22696,18116.98
908,22696,18136.96
909,22704,18156.93
910,22720,18176.90
911,22732,18196.88
912,22748,18216.85
913,22768,18236.83
914,22788,18256.80
915,22812,18276.78
916,22832,18296.75
917,22856,18316.73
918,22872,18336.70
919,22860,18356.68
920,22808,18376.65
921,22728,18396.63
922,22648,18416.60
923,22580,18436.57
924,22544,18456.55
925,22536,18476.52
926,22548,18496.50
927,22576,18516.47
928,22604,18536.45
929,22636,18556.42
930,22660,18576.40
931,22680,18596.37
932,22688,18616.35
933,22692,18636.32
934,22680,18656.30
935,22676,18676.27
936,22672,18696.24
937,22672,18716.22
938,22684,18736.19
939,22696,18756.17
940,22708,18776.14
941,22716,18796.12
942,22736,18816.09
943,22756,18836.07
944,22772,18856.04
945,22792,18876.02
946,22812,18895.99
947,22828,18915.97
948,22816,18935.94
949,22768,18955.91
950,22692,18975.89
951,22600,18995.86
952,22532,19015.84
953,22488,19035.81
954,22476,19055.79
955,22488,19075.76
956,22512,19095.74
957,22548,19115.71
958,22580,19135.69
959,22612,19155.66
960,22636,19175.64
961,22644,19195.61
962,22644,19215.58
963,22628,19235.56
964,22620,19255.53
965,22616,19275.51
966,22616,19295.48
967,22620,19315.46
968,22632,19335.43
969,22644,19355.41
970,22664,19375.38
971,22680,19395.36
972,22700,19415.33
973,22716,19435.31
974,22736,19455.28
975,22752,19475.25
976,22756,19495.23
977,22712,19515.20
978,22632,19535.18
979,22532,19555.15
980,22452,19575.13
981,22404,19595.10
982,22384,19615.08
983,22388,19635.05
984,22408,19655.03
985,22440,19675.00
986,22484,19694.98
987,22520,19714.95
988,22540,19734.92
989,22552,19754.90
990,22544,19774.87
991,22540,19794.85
992,22528,19814.82
993,22524,19834.80
994,22528,19854.77
995,22536,19874.75
996,22552,19894.72
997,22572,19914.70
998,22596,19934.67
999,22616,19954.65
1000,22636,19974.62
1001,22656,19994.59
1002,22680,20014.57
1003,22700,20034.54
1004,22720,20054.52
1005,22720,20074.49
1006,22676,20094.47
1007,22588,20114.44
1008,22484,20134.42
1009,22400,20154.39
1010,22344,20174.37
1011,22328,20194.34
1012,22340,20214.32
1013,22356,20234.29
1014,22396,20254.26
1015,22432,20274.24
1016,22468,20294.21
1017,22488,20314.19
1018,22500,20334.16
1019,22496,20354.14
1020,22492,20374.11
1021,22484,20394.09
1022,22484,20414.06
1023,22488,20434.04
1024,22496,20454.01
1025,22512,20473.99
1026,22540,20493.96
1027,22556,20513.93
1028,22580,20533.91
1029,22600,20553.88
1030,22624,20573.86
1031,22648,20593.83
1032,22672,20613.81
1033,22692,20633.78
1034,22712,20653.76
1035,22728,20673.73
1036,22712,20693.71
1037,22656,20713.68
1038,22564,20733.66
1039,22472,20753.63
1040,22392,20773.61
1041,22356,20793.58
1042,22344,20813.55
1043,22360,20833.53
1044,22396,20853.50
1045,22432,20873.48
1046,22472,20893.45
1047,22504,20913.43
1048,22532,20933.40
1049,22536,20953.38
1050,22540,20973.35
1051,22528,20993.33
1052,22520,21013.30
1053,22512,21033.28
1054,22512,21053.25
1055,22524,21073.22
1056,22536,21093.20
1057,22556,21113.17
1058,22568,21133.15
1059,22588,21153.12
1060,22608,21173.10
1061,22628,21193.07
1062,22644,21213.05
1063,22664,21233.02
1064,22680,21253.00
1065,22696,21272.97
1066,22696,21292.95
1067,22664,21312.92
1068,22588,21332.89
1069,22492,21352.87
1070,22412,21372.84
1071,22360,21392.82
1072,22340,21412.79
1073,22344,21432.77
1074,22364,21452.74
1075,22396,21472.72
1076,22436,21492.69
1077,22480,21512.67
1078,22504,21532.64
1079,22516,21552.62
1080,22512,21572.59
1081,22496,21592.56
1082,22480,21612.54
1083,22464,21632.51
1084,22460,21652.49
1085,22468,21672.46
1086,22476,21692.44
1087,22496,21712.41
1088,22520,21732.39
1089,22544,21752.36
1090,22564,21772.34
1091,22592,21792.31
1092,22612,21812.29
1093,22632,21832.26
1094,22648,21852.23
1095,22664,21872.21
1096,22664,21892.18
1097,22616,21912.16
1098,22528,21932.13
1099,22424,21952.11
1100,22340,21972.08
1101,22292,21992.06
1102,22276,22012.03
1103,22292,22032.01
1104,22316,22051.98
1105,22356,22071.96
1106,22396,22091.93
1107,22440,22111.90
1108,22468,22131.88
1109,22488,22151.85
1110,22488,22171.83
1111,22488,22191.80
1112,22480,22211.78
1113,22472,22231.75
1114,22472,22251.73
1115,22480,22271.70
1116,22496,22291.68
1117,22516,22311.65
1118,22544,22331.63
1119,22564,22351.60
1120,22592,22371.57
1121,22616,22391.55
1122,22640,22411.52
1123,22664,22431.50
1124,22684,22451.47
1125,22708,22471.45
1126,22712,22491.42
1127,22672,22511.40
1128,22588,22531.37
1129,22488,22551.35
1130,22396,22571.32
1131,22332,22591.30
1132,22308,22611.27
1133,22312,22631.24
1134,22336,22651.22
1135,22376,22671.19
1136,22420,22691.17
1137,22464,22711.14
1138,22496,22731.12
1139,22516,22751.09
1140,22524,22771.07
1141,22516,22791.04
1142,22508,22811.02
1143,22496,22830.99
1144,22492,22850.97
1145,22496,22870.94
1146,22508,22890.91
1147,22524,22910.89
1148,22540,22930.86
1149,22560,22950.84
1150,22584,22970.81
1151,22612,22990.79
1152,22632,23010.76
1153,22656,23030.74
1154,22680,23050.71
1155,22700,23070.69
1156,22720,23090.66
1157,22724,23110.64
1158,22676,23130.61
1159,22584,23150.58
1160,22484,23170.56
1161,22400,23190.53
1162,22352,23210.51
1163,22336,23230.48
1164,22340,23250.46
1165,22368,23270.43
1166,22408,23290.41
1167,22452,23310.38
1168,22496,23330.36
1169,22532,23350.33
1170,22556,23370.31
1171,22556,23390.28
1172,22548,23410.25
1173,22536,23430.23
1174,22524,23450.20
1175,22516,23470.18
1176,22516,23490.15
1177,22528,23510.13
1178,22540,23530.10
1179,22552,23550.08
1180,22576,23570.05
1181,22596,23590.03
1182,22616,23610.00
1183,22632,23629.98
1184,22656,23649.95
1185,22676,23669.92
1186,22684,23689.90
1187,22660,23709.87
1188,22584,23729.85
1189,22488,23749.82
1190,22400,23769.80
1191,22332,23789.77
1192,22300,23809.75
1193,22292,23829.72
1194,22308,23849.70
1195,22340,23869.67
1196,22384,23889.65
1197,22428,23909.62
1198,22468,23929.60
1199,22492,23949.57
1200,22504,23969.54
1201,22500,23989.52
1202,22496,24009.49
1203,22488,24029.47
1204,22484,24049.44
1205,22480,24069.42
1206,22492,24089.39
1207,22504,24109.37
1208,22528,24129.34
1209,22552,24149.32
1210,22572,24169.29
1211,22600,24189.27
1212,22624,24209.24
1213,22640,24229.21
1214,22664,24249.19
1215,22672,24269.16
1216,22624,24289.14
1217,22528,24309.11
1218,22420,24329.09
1219,22316,24349.06
1220,22256,24369.04
1221,22232,24389.01
1222,22240,24408.99
1223,22272,24428.96
1224,22304,24448.94
1225,22348,24468.91
1226,22388,24488.88
1227,22424,24508.86
1228,22444,24528.83
1229,22452,24548.81
1230,22440,24568.78
1231,22428,24588.76
1232,22428,24608.73
1233,22424,24628.71
1234,22432,24648.68
1235,22440,24668.66
1236,22464,24688.63
1237,22484,24708.61
1238,22508,24728.58
1239,22536,24748.55
1240,22560,24768.53
1241,22584,24788.50
1242,22612,24808.48
1243,22640,24828.45
1244,22640,24848.43
1245,22584,24868.40
1246,22488,24888.38
1247,22380,24908.35
1248,22292,24928.33
1249,22240,24948.30
1250,22228,24968.28
1251,22232,24988.25
1252,22256,25008.22
1253,22300,25028.20
1254,22348,25048.17
1255,22388,25068.15
1256,22416,25088.12
1257,22424,25108.10
1258,22428,25128.07
1259,22424,25148.05
1260,22412,25168.02
1261,22404,25188.00
1262,22396,25207.97
1263,22404,25227.95
1264,22416,25247.92
1265,22432,25267.89
1266,22452,25287.87
1267,22476,25307.84
1268,22492,25327.82
1269,22520,25347.79
1270,22544,25367.77
1271,22572,25387.74
1272,22592,25407.72
1273,22592,25427.69
1274,22548,25447.67
1275,22460,25467.64
1276,22364,25487.62
1277,22280,25507.59
1278,22228,25527.56
1279,22208,25547.54
1280,22220,25567.51
1281,22252,25587.49
1282,22296,25607.46
1283,22336,25627.44
1284,22380,25647.41
1285,22404,25667.39
1286,22420,25687.36
1287,22420,25707.34
1288,22408,25727.31
1289,22392,25747.29
1290,22380,25767.26
1291,22376,25787.23
1292,22384,25807.21
1293,22392,25827.18
1294,22408,25847.16
1295,22424,25867.13
1296,22440,25887.11
1297,22460,25907.08
1298,22480,25927.06
1299,22504,25947.03
1300,22520,25967.01
1301,22508,25986.98
1302,22452,26006.96
1303,22360,26026.93
1304,22256,26046.90
1305,22176,26066.88
1306,22128,26086.85
1307,22116,26106.83
1308,22132,26126.80
1309,22168,26146.78
1310,22216,26166.75
1311,22264,26186.73
1312,22300,26206.70
1313,22328,26226.68
1314,22340,26246.65
1315,22340,26266.63
1316,22328,26286.60
1317,22316,26306.57
1318,22308,26326.55
1319,22308,26346.52
1320,22324,26366.50
1321,22344,26386.47
1322,22360,26406.45
1323,22380,26426.42
1324,22400,26446.40
1325,22424,26466.37
1326,22452,26486.35
1327,22472,26506.32
1328,22492,26526.30
1329,22476,26546.27
1330,22404,26566.24
1331,22300,26586.22
1332,22192,26606.19
1333,22108,26626.17
1334,22064,26646.14
1335,22056,26666.12
1336,22076,26686.09
1337,22112,26706.07
1338,22156,26726.04
1339,22200,26746.02
1340,22236,26765.99
1341,22256,26785.97
1342,22264,26805.94
1343,22256,26825.91
1344,22244,26845.89
1345,22232,26865.86
1346,22228,26885.84
1347,22232,26905.81
1348,22248,26925.79
1349,22272,26945.76
1350,22296,26965.74
1351,22324,26985.71
1352,22348,27005.69
1353,22372,27025.66
1354,22396,27045.64
1355,22420,27065.61
1356,22440,27085.59
1357,22440,27105.56
1358,22392,27125.53
1359,22304,27145.51
1360,22196,27165.48
1361,22112,27185.46
1362,22060,27205.43
1363,22048,27225.41
1364,22064,27245.38
1365,22104,27265.36
1366,22144,27285.33
1367,22188,27305.31
1368,22232,27325.28
1369,22256,27345.26
1370,22268,27365.23
1371,22264,27385.20
1372,22248,27405.18
1373,22232,27425.15
1374,22224,27445.13
1375,22224,27465.10
1376,22228,27485.08
1377,22248,27505.05
1378,22264,27525.03
1379,22284,27545.00
1380,22308,27564.98
1381,22324,27584.95
1382,22344,27604.93
1383,22364,27624.90
1384,22380,27644.87
1385,22400,27664.85
1386,22400,27684.82
1387,22364,27704.80
1388,22280,27724.77
1389,22176,27744.75
1390,22092,27764.72
1391,22040,27784.70
1392,22028,27804.67
1393,22044,27824.65
1394,22072,27844.62
1395,22120,27864.60
1396,22172,27884.57
1397,22216,27904.54
1398,22248,27924.52
1399,22256,27944.49
1400,22248,27964.47
1401,22228,27984.44
1402,22216,28004.42
1403,22204,28024.39
1404,22204,28044.37
1405,22204,28064.34
1406,22216,28084.32
1407,22228,28104.29
1408,22244,28124.27
1409,22260,28144.24
1410,22280,28164.21
1411,22292,28184.19
1412,22312,28204.16
1413,22332,28224.14
1414,22348,28244.11
1415,22340,28264.09
1416,22280,28284.06
1417,22184,28304.04
1418,22080,28324.01
1419,22004,28343.99
1420,21960,28363.96
1421,21964,28383.94
1422,21984,28403.91
1423,22020,28423.88
1424,22072,28443.86
1425,22120,28463.83
1426,22160,28483.81
1427,22188,28503.78
1428,22192,28523.76
1429,22188,28543.73
1430,22172,28563.71
1431,22168,28583.68
1432,22164,28603.66
1433,22168,28623.63
1434,22180,28643.61
1435,22204,28663.58
1436,22228,28683.55
1437,22256,28703.53
1438,22276,28723.50
1439,22300,28743.48
1440,22320,28763.45
1441,22340,28783.43
1442,22356,28803.40
1443,22372,28823.38
1444,22392,28843.35
1445,22392,28863.33
1446,22340,28883.30
1447,22236,28903.28
1448,22116,28923.25
1449,22024,28943.22
1450,21968,28963.20
1451,21952,28983.17
1452,21968,29003.15
1453,22000,29023.12
1454,22044,29043.10
1455,22092,29063.07
1456,22132,29083.05
1457,22160,29103.02
1458,22180,29123.00
1459,22180,29142.97
1460,22172,29162.95
1461,22160,29182.92
1462,22152,29202.89
1463,22148,29222.87
1464,22156,29242.84
1465,22176,29262.82
1466,22196,29282.79
1467,22224,29302.77
1468,22248,29322.74
1469,22276,29342.72
1470,22296,29362.69
1471,22320,29382.67
1472,22340,29402.64
1473,22360,29422.62
1474,22380,29442.59
1475,22396,29462.56
1476,22416,29482.54
1477,22404,29502.51
1478,22336,29522.49
1479,22232,29542.46
1480,22116,29562.44
1481,22032,29582.41
1482,21988,29602.39
1483,21976,29622.36
1484,22004,29642.34
1485,22040,29662.31
1486,22084,29682.29
1487,22136,29702.26
1488,22180,29722.23
1489,22208,29742.21
1490,22212,29762.18
1491,22204,29782.16
1492,22184,29802.13
1493,22168,29822.11
1494,22156,29842.08
1495,22156,29862.06
1496,22160,29882.03
1497,22176,29902.01
1498,22196,29921.98
1499,22224,29941.96
1500,22248,29961.93
1501,22264,29981.90
1502,22284,30001.88
1503,22304,30021.85
1504,22324,30041.83
1505,22348,30061.80
1506,22368,30081.78
1507,22376,30101.75
1508,22336,30121.73
1509,22256,30141.70
1510,22148,30161.68
1511,22052,30181.65
1512,21988,30201.63
1513,21964,30221.60
1514,21972,30241.58
1515,22004,30261.55
1516,22044,30281.52
1517,22092,30301.50
1518,22128,30321.47
1519,22156,30341.45
1520,22168,30361.42
1521,22164,30381.40
1522,22152,30401.37
1523,22140,30421.35
1524,22132,30441.32
1525,22128,30461.30
1526,22140,30481.27
1527,22156,30501.25
1528,22176,30521.22
1529,22200,30541.19
1530,22220,30561.17
1531,22244,30581.14
1532,22264,30601.12
1533,22284,30621.09
1534,22304,30641.07
1535,22320,30661.04
1536,22344,30681.02
1537,22356,30700.99
1538,22332,30720.97
1539,22256,30740.94
1540,22136,30760.92
1541,22024,30780.89
1542,21944,30800.86
1543,21908,30820.84
1544,21912,30840.81
1545,21944,30860.79
1546,21984,30880.76
1547,22032,30900.74
1548,22080,30920.71
1549,22124,30940.69
1550,22148,30960.66
1551,22156,30980.64
1552,22148,31000.61
1553,22140,31020.59
1554,22136,31040.56
1555,22132,31060.53
1556,22144,31080.51
1557,22156,31100.48
1558,22172,31120.46
1559,22200,31140.43
1560,22228,31160.41
1561,22256,31180.38
1562,22280,31200.36
1563,22308,31220.33
1564,22328,31240.31
1565,22352,31260.28
1566,22380,31280.26
1567,22404,31300.23
1568,22420,31320.20
1569,22404,31340.18
1570,22332,31360.15
1571,22220,31380.13
1572,22100,31400.10
1573,22012,31420.08
1574,21964,31440.05
1575,21948,31460.03
1576,21968,31480.00
1577,22004,31499.98
1578,22048,31519.95
1579,22104,31539.93
1580,22144,31559.90
1581,22172,31579.87
1582,22188,31599.85
1583,22192,31619.82
1584,22180,31639.80
1585,22172,31659.77
1586,22160,31679.75
1587,22164,31699.72
1588,22172,31719.70
1589,22188,31739.67
1590,22212,31759.65
1591,22232,31779.62
1592,22260,31799.60
1593,22288,31819.57
1594,22308,31839.54
1595,22336,31859.52
1596,22356,31879.49
1597,22376,31899.47
1598,22396,31919.44
1599,22412,31939.42
1600,22400,31959.39
1601,22336,31979.37
1602,22236,31999.34
1603,22128,32019.32
1604,22044,32039.29
1605,21992,32059.27
1606,21980,32079.24
1607,22000,32099.21
1608,22032,32119.19
1609,22084,32139.16
1610,22136,32159.14
1611,22180,32179.11
1612,22208,32199.09
1613,22220,32219.06
1614,22220,32239.04
1615,22208,32259.01
1616,22196,32278.99
1617,22180,32298.96
1618,22172,32318.94
1619,22176,32338.91
1620,22180,32358.88
1621,22192,32378.86
1622,22208,32398.83
1623,22224,32418.81
1624,22240,32438.78
1625,22260,32458.76
1626,22284,32478.73
1627,22312,32498.71
1628,22332,32518.68
1629,22336,32538.66
1630,22292,32558.63
1631,22200,32578.61
1632,22088,32598.58
1633,21996,32618.55
1634,21940,32638.53
1635,21924,32658.50
1636,21940,32678.48
1637,21976,32698.45
1638,22024,32718.43
1639,22080,32738.40
1640,22128,32758.38
1641,22168,32778.35
1642,22192,32798.33
1643,22196,32818.30
1644,22188,32838.28
1645,22176,32858.25
1646,22164,32878.22
1647,22160,32898.20
1648,22168,32918.17
1649,22180,32938.15
1650,22200,32958.12
1651,22220,32978.10
1652,22240,32998.07
1653,22268,33018.05
1654,22292,33038.02
1655,22320,33058.00
1656,22340,33077.97
1657,22356,33097.95
1658,22368,33117.92
1659,22332,33137.89
1660,22240,33157.87
1661,22116,33177.84
1662,22008,33197.82
1663,21932,33217.79
1664,21900,33237.77
1665,21916,33257.74
1666,21948,33277.72
1667,21992,33297.69
1668,22044,33317.67
1669,22096,33337.64
1670,22140,33357.62
1671,22172,33377.59
1672,22184,33397.57
1673,22180,33417.54
1674,22172,33437.51
1675,22168,33457.49
1676,22168,33477.46
1677,22168,33497.44
1678,22176,33517.41
1679,22192,33537.39
1680,22216,33557.36
1681,22244,33577.34
1682,22272,33597.31
1683,22296,33617.29
1684,22324,33637.26
1685,22344,33657.24
1686,22368,33677.21
1687,22388,33697.18
1688,22392,33717.16
1689,22340,33737.13
1690,22244,33757.11
1691,22124,33777.08
1692,22020,33797.06
1693,21956,33817.03
1694,21932,33837.01
1695,21940,33856.98
1696,21968,33876.96
1697,22012,33896.93
1698,22060,33916.91
1699,22116,33936.88
1700,22152,33956.85
1701,22172,33976.83
1702,22176,33996.80
1703,22168,34016.78
1704,22156,34036.75
1705,22144,34056.73
1706,22140,34076.70
1707,22148,34096.68
1708,22156,34116.65
1709,22176,34136.63
1710,22200,34156.60
1711,22220,34176.58
1712,22240,34196.55
1713,22264,34216.52
1714,22284,34236.50
1715,22308,34256.47
1716,22328,34276.45
1717,22324,34296.42
1718,22268,34316.40
1719,22172,34336.37
1720,22064,34356.35
1721,21976,34376.32
1722,21924,34396.30
1723,21916,34416.27
1724,21932,34436.25
1725,21964,34456.22
1726,22016,34476.19
1727,22060,34496.17
1728,22092,34516.14
1729,22112,34536.12
1730,22116,34556.09
1731,22104,34576.07
1732,22088,34596.04
1733,22076,34616.02
1734,22064,34635.99
1735,22068,34655.97
1736,22076,34675.94
1737,22100,34695.92
1738,22124,34715.89
1739,22148,34735.86
1740,22168,34755.84
1741,22196,34775.81
1742,22216,34795.79
1743,22240,34815.76
1744,22264,34835.74
1745,22276,34855.71
1746,22232,34875.69
1747,22144,34895.66
1748,22032,34915.64
1749,21936,34935.61
1750,21876,34955.59
1751,21856,34975.56
1752,21872,34995.53
1753,21908,35015.51
1754,21956,35035.48
1755,22012,35055.46
1756,22064,35075.43
1757,22100,35095.41
1758,22112,35115.38
1759,22112,35135.36
1760,22108,35155.33
1761,22096,35175.31
1762,22088,35195.28
1763,22092,35215.26
1764,22104,35235.23
1765,22124,35255.20
1766,22148,35275.18
1767,22172,35295.15
1768,22196,35315.13
1769,22220,35335.10
1770,22244,35355.08
1771,22264,35375.05
1772,22288,35395.03
1773,22308,35415.00
1774,22316,35434.98
1775,22268,35454.95
1776,22172,35474.93
1777,22056,35494.90
1778,21956,35514.87
1779,21892,35534.85
1780,21872,35554.82
1781,21884,35574.80
1782,21912,35594.77
1783,21960,35614.75
1784,22008,35634.72
1785,22056,35654.70
1786,22092,35674.67
1787,22116,35694.65
1788,22120,35714.62
1789,22112,35734.60
1790,22100,35754.57
1791,22096,35774.54
1792,22096,35794.52
1793,22108,35814.49
1794,22132,35834.47
1795,22152,35854.44
1796,22180,35874.42
1797,22204,35894.39
1798,22232,35914.37
1799,22256,35934.34
1800,22284,35954.32
1801,22304,35974.29
1802,22324,35994.27
1803,22336,36014.24
1804,22300,36034.21
1805,22224,36054.19
1806,22120,36074.16
1807,22020,36094.14
1808,21948,36114.11
1809,21916,36134.09
1810,21924,36154.06
1811,21952,36174.04
1812,22000,36194.01
1813,22052,36213.99
1814,22100,36233.96
1815,22136,36253.94
1816,22160,36273.91
1817,22164,36293.88
1818,22152,36313.86
1819,22132,36333.83
1820,22120,36353.81
1821,22108,36373.78
1822,22112,36393.76
1823,22124,36413.73
1824,22140,36433.71
1825,22156,36453.68
1826,22176,36473.66
1827,22204,36493.63
1828,22228,36513.61
1829,22248,36533.58
1830,22272,36553.56
1831,22292,36573.53
1832,22260,36593.50
1833,22184,36613.48
1834,22064,36633.45
1835,21948,36653.43
1836,21860,36673.40
1837,21820,36693.38
1838,21820,36713.35
1839,21852,36733.33
1840,21904,36753.30
1841,21960,36773.28
1842,22008,36793.25
1843,22052,36813.23
1844,22080,36833.20
1845,22088,36853.17
1846,22080,36873.15
1847,22060,36893.12
1848,22048,36913.10
1849,22044,36933.07
1850,22044,36953.05
1851,22056,36973.02
1852,22072,36993.00
1853,22092,37012.97
1854,22112,37032.95
1855,22144,37052.92
1856,22172,37072.90
1857,22200,37092.87
1858,22224,37112.84
1859,22248,37132.82
1860,22244,37152.79
1861,22176,37172.77
1862,22060,37192.74
1863,21932,37212.72
1864,21836,37232.69
1865,21780,37252.67
1866,21772,37272.64
1867,21796,37292.62
1868,21836,37312.59
1869,21888,37332.57
1870,21948,37352.54
1871,21996,37372.51
1872,22032,37392.49
1873,22052,37412.46
1874,22048,37432.44
1875,22040,37452.41
1876,22028,37472.39
1877,22020,37492.36
1878,22028,37512.34
1879,22040,37532.31
1880,22060,37552.29
1881,22088,37572.26
1882,22120,37592.24
1883,22156,37612.21
1884,22184,37632.18
1885,22216,37652.16
1886,22240,37672.13
1887,22264,37692.11
1888,22284,37712.08
1889,22264,37732.06
1890,22184,37752.03
1891,22068,37772.01
1892,21944,37791.98
1893,21860,37811.96
1894,21824,37831.93
1895,21828,37851.91
1896,21856,37871.88
1897,21896,37891.85
1898,21948,37911.83
1899,22000,37931.80
1900,22044,37951.78
1901,22076,37971.75
1902,22088,37991.73
1903,22084,38011.70
1904,22068,38031.68
1905,22056,38051.65
1906,22048,38071.63
1907,22048,38091.60
1908,22056,38111.58
1909,22064,38131.55
1910,22092,38151.52
1911,22120,38171.50
1912,22148,38191.47
1913,22172,38211.45
1914,22192,38231.42
1915,22224,38251.40
1916,22244,38271.37
1917,22264,38291.35
1918,22228,38311.32
1919,22140,38331.30
1920,22028,38351.27
1921,21924,38371.25
1922,21864,38391.22
1923,21840,38411.19
1924,21848,38431.17
1925,21884,38451.14
1926,21928,38471.12
1927,21988,38491.09
1928,22044,38511.07
1929,22084,38531.04
1930,22112,38551.02
1931,22116,38570.99
1932,22108,38590.97
1933,22092,38610.94
1934,22068,38630.92
1935,22052,38650.89
1936,22040,38670.86
1937,22048,38690.84
1938,22064,38710.81
1939,22084,38730.79
1940,22104,38750.76
1941,22128,38770.74
1942,22152,38790.71
1943,22180,38810.69
1944,22208,38830.66
1945,22228,38850.64
1946,22200,38870.61
1947,22116,38890.59
1948,22004,38910.56
1949,21900,38930.53
1950,21832,38950.51
1951,21804,38970.48
1952,21808,38990.46
1953,21844,39010.43
1954,21900,39030.41
1955,21960,39050.38
1956,22016,39070.36
1957,22060,39090.33
1958,22088,39110.31
1959,22100,39130.28
1960,22100,39150.26
1961,22088,39170.23
1962,22076,39190.20
1963,22072,39210.18
1964,22080,39230.15
1965,22100,39250.13
1966,22120,39270.10
1967,22144,39290.08
1968,22168,39310.05
1969,22196,39330.03
1970,22224,39350.00
1971,22248,39369.98
1972,22272,39389.95
1973,22296,39409.93
1974,22304,39429.90
1975,22272,39449.87
1976,22184,39469.85
1977,22056,39489.82
1978,21948,39509.80
1979,21872,39529.77
1980,21848,39549.75
1981,21856,39569.72
1982,21892,39589.70
1983,21940,39609.67
1984,21992,39629.65
1985,22044,39649.62
1986,22096,39669.60
1987,22128,39689.57
1988,22136,39709.55
1989,22128,39729.52
1990,22116,39749.49
1991,22108,39769.47
1992,22100,39789.44
1993,22104,39809.42
1994,22108,39829.39
1995,22128,39849.37
1996,22156,39869.34
1997,22184,39889.32
1998,22212,39909.29
1999,22236,39929.27
2000,22256,39949.24
2001,22284,39969.22
2002,22312,39989.19
2003,22340,40009.16
2004,22344,40029.14
2005,22292,40049.11
2006,22188,40069.09
2007,22076,40089.06
2008,21980,40109.04
2009,21920,40129.01
2010,21892,40148.99
2011,21904,40168.96
2012,21944,40188.94
2013,21996,40208.91
2014,22052,40228.89
2015,22100,40248.86
2016,22144,40268.83
2017,22172,40288.81
2018,22180,40308.78
2019,22164,40328.76
2020,22148,40348.73
2021,22132,40368.71
2022,22124,40388.68
2023,22124,40408.66
2024,22132,40428.63
2025,22144,40448.61
2026,22160,40468.58
2027,22184,40488.56
2028,22208,40508.53
2029,22232,40528.50
2030,22260,40548.48
2031,22276,40568.45
2032,22296,40588.43
2033,22292,40608.40
2034,22228,40628.38
2035,22128,40648.35
2036,22020,40668.33
2037,21928,40688.30
2038,21876,40708.28
2039,21864,40728.25
2040,21884,40748.23
2041,21920,40768.20
2042,21972,40788.17
2043,22028,40808.15
2044,22080,40828.12
2045,22120,40848.10
2046,22140,40868.07
2047,22140,40888.05
2048,22128,40908.02
2049,22120,40928.00
2050,22112,40947.97
2051,22112,40967.95
2052,22120,40987.92
2053,22136,41007.90
2054,22160,41027.87
2055,22188,41047.84
2056,22212,41067.82
2057,22236,41087.79
2058,22260,41107.77
2059,22288,41127.74
2060,22312,41147.72
2061,22328,41167.69
2062,22292,41187.67
2063,22196,41207.64
2064,22072,41227.62
2065,21956,41247.59
2066,21876,41267.57
2067,21840,41287.54
2068,21848,41307.51
2069,21884,41327.49
2070,21936,41347.46
2071,21992,41367.44
2072,22040,41387.41
2073,22088,41407.39
2074,22120,41427.36
2075,22140,41447.34
2076,22140,41467.31
2077,22124,41487.29
2078,22108,41507.26
2079,22104,41527.24
2080,22104,41547.21
2081,22120,41567.18
2082,22140,41587.16
2083,22164,41607.13
2084,22188,41627.11
2085,22216,41647.08
2086,22248,41667.06
2087,22276,41687.03
2088,22308,41707.01
2089,22340,41726.98
2090,22360,41746.96
2091,22340,41766.93
2092,22256,41786.91
2093,22132,41806.88
2094,22008,41826.85
2095,21920,41846.83
2096,21876,41866.80
2097,21880,41886.78
2098,21912,41906.75
2099,21960,41926.73
2100,22016,41946.70
2101,22068,41966.68
2102,22112,41986.65
2103,22148,42006.63
2104,22156,42026.60
2105,22156,42046.58
2106,22140,42066.55
2107,22120,42086.52
2108,22108,42106.50
2109,22108,42126.47
2110,22116,42146.45
2111,22132,42166.42
2112,22152,42186.40
2113,22172,42206.37
2114,22192,42226.35
2115,22220,42246.32
2116,22240,42266.30
2117,22260,42286.27
2118,22284,42306.25
2119,22300,42326.22
2120,22288,42346.19
2121,22220,42366.17
2122,22112,42386.14
2123,22000,42406.12
2124,21920,42426.09
2125,21880,42446.07
2126,21876,42466.04
2127,21904,42486.02
2128,21948,42505.99
2129,22008,42525.97
2130,22068,42545.94
2131,22116,42565.92
2132,22144,42585.89
2133,22152,42605.86
2134,22144,42625.84
2135,22132,42645.81
2136,22112,42665.79
2137,22100,42685.76
2138,22100,42705.74
2139,22108,42725.71
2140,22124,42745.69
2141,22140,42765.66
2142,22160,42785.64
2143,22176,42805.61
2144,22192,42825.59
2145,22204,42845.56
2146,22216,42865.54
2147,22224,42885.51
2148,22184,42905.48
2149,22096,42925.46
2150,21988,42945.43
2151,21900,42965.41
2152,21844,42985.38
2153,21832,43005.36
2154,21840,43025.33
2155,21884,43045.31
2156,21940,43065.28
2157,22000,43085.26
2158,22052,43105.23
2159,22096,43125.21
2160,22120,43145.18
2161,22124,43165.15
2162,22108,43185.13
2163,22092,43205.10
2164,22084,43225.08
2165,22084,43245.05
2166,22096,43265.03
2167,22104,43285.00
2168,22124,43304.98
2169,22148,43324.95
2170,22176,43344.93
2171,22204,43364.90
2172,22228,43384.88
2173,22252,43404.85
2174,22272,43424.82
2175,22260,43444.80
2176,22188,43464.77
2177,22068,43484.75
2178,21944,43504.72
2179,21852,43524.70
2180,21812,43544.67
2181,21812,43564.65
2182,21840,43584.62
2183,21888,43604.60
2184,21940,43624.57
2185,21988,43644.55
2186,22036,43664.52
2187,22064,43684.49
2188,22072,43704.47
2189,22068,43724.44
2190,22052,43744.42
2191,22044,43764.39
2192,22040,43784.37
2193,22044,43804.34
2194,22056,43824.32
2195,22076,43844.29
2196,22092,43864.27
2197,22108,43884.24
2198,22124,43904.22
2199,22152,43924.19
2200,22176,43944.16
2201,22200,43964.14
2202,22220,43984.11
2203,22208,44004.09
2204,22144,44024.06
2205,22036,44044.04
2206,21924,44064.01
2207,21840,44083.99
2208,21800,44103.96
2209,21800,44123.94
2210,21828,44143.91
2211,21876,44163.89
2212,21928,44183.86
2213,21988,44203.83
2214,22040,44223.81
2215,22072,44243.78
2216,22088,44263.76
2217,22088,44283.73
2218,22080,44303.71
2219,22068,44323.68
2220,22064,44343.66
2221,22064,44363.63
2222,22072,44383.61
2223,22088,44403.58
2224,22116,44423.56
2225,22136,44443.53
2226,22156,44463.50
2227,22188,44483.48
2228,22216,44503.45
2229,22240,44523.43
2230,22248,44543.40
2231,22204,44563.38
2232,22112,44583.35
2233,22008,44603.33
2234,21920,44623.30
2235,21868,44643.28
2236,21856,44663.25
2237,21876,44683.23
2238,21912,44703.20
2239,21960,44723.17
2240,22016,44743.15
2241,22056,44763.12
2242,22084,44783.10
2243,22096,44803.07
2244,22092,44823.05
2245,22080,44843.02
2246,22072,44863.00
2247,22060,44882.97
2248,22056,44902.95
2249,22068,44922.92
2250,22080,44942.90
2251,22092,44962.87
2252,22104,44982.84
2253,22124,45002.82
2254,22132,45022.79
2255,22152,45042.77
2256,22152,45062.74
2257,22116,45082.72
2258,22032,45102.69
2259,21936,45122.67
2260,21844,45142.64
2261,21792,45162.62
2262,21776,45182.59
2263,21792,45202.57
2264,21832,45222.54
2265,21880,45242.51
2266,21932,45262.49
2267,21984,45282.46
2268,22020,45302.44
2269,22040,45322.41
2270,22044,45342.39
2271,22040,45362.36
2272,22028,45382.34
2273,22024,45402.31
2274,22028,45422.29
2275,22040,45442.26
2276,22048,45462.24
2277,22072,45482.21
2278,22096,45502.18
2279,22116,45522.16
2280,22148,45542.13
2281,22172,45562.11
2282,22192,45582.08
2283,22180,45602.06
2284,22108,45622.03
2285,22000,45642.01
2286,21888,45661.98
2287,21808,45681.96
2288,21764,45701.93
2289,21760,45721.91
2290,21788,45741.88
2291,21836,45761.85
2292,21880,45781.83
2293,21936,45801.80
2294,21980,45821.78
2295,22012,45841.75
2296,22032,45861.73
2297,22036,45881.70
2298,22032,45901.68
2299,22028,45921.65
2300,22028,45941.63
2301,22036,45961.60
2302,22056,45981.58
2303,22080,46001.55
2304,22096,46021.53
2305,22120,46041.50
2306,22144,46061.47
2307,22168,46081.45
2308,22192,46101.42
2309,22212,46121.40
2310,22196,46141.37
2311,22116,46161.35
2312,22008,46181.32
2313,21900,46201.30
2314,21828,46221.27
2315,21800,46241.25
2316,21804,46261.22
2317,21836,46281.20
2318,21872,46301.17
2319,21920,46321.14
2320,21968,46341.12
2321,22012,46361.09
2322,22036,46381.07
2323,22048,46401.04
2324,22048,46421.02
2325,22048,46440.99
2326,22044,46460.97
2327,22056,46480.94
2328,22060,46500.92
2329,22076,46520.89
2330,22104,46540.87
2331,22124,46560.84
2332,22156,46580.81
2333,22180,46600.79
2334,22204,46620.76
2335,22236,46640.74
2336,22260,46660.71
2337,22252,46680.69
2338,22188,46700.66
2339,22088,46720.64
2340,21988,46740.61
2341,21920,46760.59
2342,21888,46780.56
2343,21892,46800.54
2344,21924,46820.51
2345,21960,46840.48
2346,22008,46860.46
2347,22056,46880.43
2348,22096,46900.41
2349,22116,46920.38
2350,22128,46940.36
2351,22132,46960.33
2352,22132,46980.31
2353,22136,47000.28
2354,22140,47020.26
2355,22152,47040.23
2356,22172,47060.21
2357,22192,47080.18
2358,22216,47100.15
2359,22232,47120.13
2360,22244,47140.10
2361,22256,47160.08
2362,22272,47180.05
2363,22288,47200.03
2364,22308,47220.00
2365,22308,47239.98
2366,22272,47259.95
2367,22188,47279.93
2368,22096,47299.90
2369,22012,47319.88
2370,21964,47339.85
2371,21952,47359.82
2372,21964,47379.80
2373,21992,47399.77
2374,22024,47419.75
2375,22064,47439.72
2376,22100,47459.70
2377,22132,47479.67
2378,22152,47499.65
2379,22164,47519.62
2380,22168,47539.60
2381,22172,47559.57
2382,22180,47579.55
2383,22192,47599.52
2384,22212,47619.49
2385,22236,47639.47
2386,22260,47659.44
2387,22288,47679.42
2388,22316,47699.39
2389,22340,47719.37
2390,22368,47739.34
2391,22396,47759.32
2392,22420,47779.29
2393,22444,47799.27
2394,22468,47819.24
2395,22492,47839.22
2396,22516,47859.19
2397,22540,47879.16
2398,22568,47899.14
2399,22580,47919.11
2400,22544,47939.09
2401,22468,47959.06
2402,22368,47979.04
2403,22264,47999.01
2404,22200,48018.99
2405,22164,48038.96
2406,22164,48058.94
2407,22172,48078.91
2408,22192,48098.89
2409,22224,48118.86
2410,22252,48138.83
2411,22284,48158.81
2412,22304,48178.78
2413,22324,48198.76
2414,22332,48218.73
2415,22336,48238.71
2416,22336,48258.68
2417,22344,48278.66
2418,22356,48298.63
2419,22376,48318.61
2420,22396,48338.58
2421,22420,48358.56
2422,22444,48378.53
2423,22476,48398.50
2424,22504,48418.48
2425,22528,48438.45
2426,22552,48458.43
2427,22580,48478.40
2428,22604,48498.38
2429,22628,48518.35
2430,22652,48538.33
2431,22676,48558.30
2432,22700,48578.28
2433,22724,48598.25
2434,22748,48618.23
2435,22768,48638.20
2436,22784,48658.17
2437,22760,48678.15
2438,22700,48698.12
2439,22612,48718.10
2440,22520,48738.07
2441,22444,48758.05
2442,22400,48778.02
2443,22384,48798.00
2444,22380,48817.97
2445,22396,48837.95
2446,22416,48857.92
2447,22444,48877.90
2448,22460,48897.87
2449,22480,48917.84
2450,22488,48937.82
2451,22488,48957.79
2452,22484,48977.77
2453,22480,48997.74
2454,22484,49017.72
2455,22488,49037.69
2456,22500,49057.67
2457,22512,49077.64
2458,22528,49097.62
2459,22548,49117.59
2460,22568,49137.57
2461,22588,49157.54
2462,22612,49177.52
2463,22624,49197.49
2464,22640,49217.46
2465,22648,49237.44
2466,22660,49257.41
2467,22676,49277.39
2468,22688,49297.36
2469,22704,49317.34
2470,22720,49337.31
2471,22740,49357.29
2472,22752,49377.26
2473,22736,49397.24
2474,22688,49417.21
2475,22600,49437.19
2476,22520,49457.16
2477,22448,49477.13
2478,22404,49497.11
2479,22384,49517.08
2480,22392,49537.06
2481,22408,49557.03
2482,22432,49577.01
2483,22456,49596.98
2484,22480,49616.96
2485,22500,49636.93
2486,22512,49656.91
2487,22516,49676.88
2488,22520,49696.86
2489,22516,49716.83
2490,22516,49736.80
2491,22520,49756.78
2492,22532,49776.75
2493,22552,49796.73
2494,22564,49816.70
2495,22584,49836.68
2496,22604,49856.65
2497,22628,49876.63
2498,22644,49896.60
2499,22668,49916.58
2500,22688,49936.55
2501,22708,49956.53
2502,22732,49976.50
2503,22752,49996.47
2504,22776,50016.45
2505,22796,50036.42
2506,22812,50056.40
2507,22840,50076.37
2508,22856,50096.35
2509,22844,50116.32
2510,22800,50136.30
2511,22720,50156.27
2512,22628,50176.25
2513,22544,50196.22
2514,22488,50216.20
2515,22456,50236.17
2516,22452,50256.14
2517,22464,50276.12
2518,22484,50296.09
2519,22516,50316.07
2520,22544,50336.04
2521,22564,50356.02
2522,22580,50375.99
2523,22592,50395.97
2524,22596,50415.94
2525,22592,50435.92
2526,22596,50455.89
2527,22600,50475.87
2528,22608,50495.84
2529,22624,50515.81
2530,22636,50535.79
2531,22656,50555.76
2532,22680,50575.74
2533,22696,50595.71
2534,22716,50615.69
2535,22736,50635.66
2536,22756,50655.64
2537,22776,50675.61
2538,22800,50695.59
2539,22820,50715.56
2540,22840,50735.54
2541,22864,50755.51
2542,22880,50775.48
2543,22900,50795.46
2544,22912,50815.43
2545,22896,50835.41
2546,22848,50855.38
2547,22768,50875.36
2548,22672,50895.33
2549,22584,50915.31
2550,22520,50935.28
2551,22484,50955.26
2552,22476,50975.23
2553,22492,50995.21
2554,22512,51015.18
2555,22540,51035.15
2556,22568,51055.13
2557,22592,51075.10
2558,22608,51095.08
2559,22616,51115.05
2560,22616,51135.03
2561,22612,51155.00
2562,22608,51174.98
2563,22608,51194.95
2564,22616,51214.93
2565,22628,51234.90
2566,22640,51254.88
2567,22656,51274.85
2568,22668,51294.82
2569,22692,51314.80
2570,22708,51334.77
2571,22724,51354.75
2572,22740,51374.72
2573,22756,51394.70
2574,22768,51414.67
2575,22784,51434.65
2576,22796,51454.62
2577,22788,51474.60
2578,22752,51494.57
2579,22676,51514.55
2580,22584,51534.52
2581,22492,51554.49
2582,22424,51574.47
2583,22380,51594.44
2584,22372,51614.42
2585,22380,51634.39
2586,22404,51654.37
2587,22432,51674.34
2588,22460,51694.32
2589,22484,51714.29
2590,22504,51734.27
2591,22512,51754.24
2592,22516,51774.22
2593,22512,51794.19
2594,22512,51814.16
2595,22512,51834.14
2596,22520,51854.11
2597,22532,51874.09
2598,22548,51894.06
2599,22564,51914.04
2600,22584,51934.01
2601,22604,51953.99
2602,22624,51973.96
2603,22648,51993.94
2604,22668,52013.91
2605,22688,52033.89
2606,22708,52053.86
2607,22728,52073.83
2608,22740,52093.81
2609,22724,52113.78
2610,22660,52133.76
2611,22568,52153.73
2612,22460,52173.71
2613,22372,52193.68
2614,22312,52213.66
2615,22284,52233.63
2616,22288,52253.61
2617,22304,52273.58
2618,22332,52293.56
2619,22360,52313.53
2620,22396,52333.51
2621,22424,52353.48
2622,22444,52373.45
2623,22456,52393.43
2624,22456,52413.40
2625,22460,52433.38
2626,22460,52453.35
2627,22460,52473.33
2628,22468,52493.30
2629,22476,52513.28
2630,22496,52533.25
2631,22512,52553.23
2632,22532,52573.20
2633,22552,52593.18
2634,22568,52613.15
2635,22592,52633.12
2636,22612,52653.10
2637,22632,52673.07
2638,22656,52693.05
2639,22668,52713.02
2640,22640,52733.00
2641,22576,52752.97
2642,22484,52772.95
2643,22388,52792.92
2644,22300,52812.90
2645,22244,52832.87
2646,22224,52852.85
2647,22224,52872.82
2648,22240,52892.79
2649,22268,52912.77
2650,22300,52932.74
2651,22328,52952.72
2652,22360,52972.69
2653,22364,52992.67
2654,22372,53012.64
2655,22368,53032.62
2656,22364,53052.59
2657,22360,53072.57
2658,22364,53092.54
2659,22372,53112.52
2660,22388,53132.49
2661,22404,53152.46
2662,22424,53172.44
2663,22444,53192.41
2664,22460,53212.39
2665,22480,53232.36
2666,22496,53252.34
2667,22516,53272.31
2668,22516,53292.29
2669,22476,53312.26
2670,22392,53332.24
2671,22296,53352.21
2672,22204,53372.19
2673,22140,53392.16
2674,22108,53412.13
2675,22104,53432.11
2676,22124,53452.08
2677,22152,53472.06
2678,22192,53492.03
2679,22228,53512.01
2680,22252,53531.98
2681,22272,53551.96
2682,22276,53571.93
2683,22272,53591.91
2684,22272,53611.88
2685,22272,53631.86
2686,22276,53651.83
2687,22284,53671.80
2688,22300,53691.78
2689,22316,53711.75
2690,22336,53731.73
2691,22356,53751.70
2692,22380,53771.68
2693,22400,53791.65
2694,22428,53811.63
2695,22448,53831.60
2696,22440,53851.58
2697,22392,53871.55
2698,22304,53891.53
2699,22208,53911.50
2700,22128,53931.47
2701,22084,53951.45
2702,22064,53971.42
2703,22076,53991.40
2704,22096,54011.37
2705,22128,54031.35
2706,22168,54051.32
2707,22208,54071.30
2708,22236,54091.27
2709,22252,54111.25
2710,22260,54131.22
2711,22256,54151.20
2712,22252,54171.17
2713,22252,54191.14
2714,22256,54211.12
2715,22268,54231.09
2716,22284,54251.07
2717,22304,54271.04
2718,22320,54291.02
2719,22344,54310.99
2720,22368,54330.97
2721,22392,54350.94
2722,22420,54370.92
2723,22428,54390.89
2724,22388,54410.87
2725,22312,54430.84
2726,22212,54450.81
2727,22128,54470.79
2728,22072,54490.76
2729,22048,54510.74
2730,22056,54530.71
2731,22084,54550.69
2732,22120,54570.66
2733,22160,54590.64
2734,22200,54610.61
2735,22232,54630.59
2736,22252,54650.56
2737,22264,54670.54
2738,22268,54690.51
2739,22268,54710.48
2740,22272,54730.46
2741,22276,54750.43
2742,22288,54770.41
2743,22308,54790.38
2744,22328,54810.36
2745,22352,54830.33
2746,22376,54850.31
2747,22400,54870.28
2748,22424,54890.26
2749,22452,54910.23
2750,22452,54930.21
2751,22408,54950.18
2752,22328,54970.15
2753,22236,54990.13
2754,22156,55010.10
2755,22112,55030.08
2756,22100,55050.05
2757,22112,55070.03
2758,22136,55090.00
2759,22176,55109.98
2760,22216,55129.95
2761,22256,55149.93
2762,22280,55169.90
2763,22296,55189.88
2764,22292,55209.85
2765,22288,55229.82
2766,22284,55249.80
2767,22284,55269.77
2768,22288,55289.75
2769,22300,55309.72
2770,22312,55329.70
2771,22332,55349.67
2772,22344,55369.65
2773,22368,55389.62
2774,22388,55409.60
2775,22404,55429.57
2776,22396,55449.55
2777,22336,55469.52
2778,22244,55489.50
2779,22148,55509.47
2780,22076,55529.44
2781,22036,55549.42
2782,22036,55569.39
2783,22052,55589.37
2784,22088,55609.34
2785,22136,55629.32
2786,22180,55649.29
2787,22220,55669.27
2788,22252,55689.24
2789,22264,55709.22
2790,22272,55729.19
2791,22260,55749.17
2792,22252,55769.14
2793,22252,55789.11
2794,22256,55809.09
2795,22268,55829.06
2796,22288,55849.04
2797,22308,55869.01
2798,22328,55888.99
2799,22356,55908.96
2800,22380,55928.94
2801,22388,55948.91
2802,22340,55968.89
2803,22252,55988.86
2804,22148,56008.84
2805,22064,56028.81
2806,22012,56048.78
2807,21988,56068.76
2808,22000,56088.73
2809,22028,56108.71
2810,22064,56128.68
2811,22112,56148.66
2812,22152,56168.63
2813,22176,56188.61
2814,22192,56208.58
2815,22196,56228.56
2816,22188,56248.53
2817,22188,56268.51
2818,22184,56288.48
2819,22192,56308.45
2820,22212,56328.43
2821,22232,56348.40
2822,22252,56368.38
2823,22276,56388.35
2824,22304,56408.33
2825,22332,56428.30
2826,22352,56448.28
2827,22328,56468.25
2828,22256,56488.23
2829,22164,56508.20
2830,22080,56528.18
2831,22032,56548.15
2832,22012,56568.12
2833,22020,56588.10
2834,22048,56608.07
2835,22088,56628.05
2836,22132,56648.02
2837,22176,56668.00
2838,22212,56687.97
2839,22232,56707.95
2840,22256,56727.92
2841,22268,56747.90
2842,22276,56767.87
2843,22288,56787.85
2844,22304,56807.82
2845,22324,56827.79
2846,22348,56847.77
2847,22376,56867.74
2848,22404,56887.72
2849,22432,56907.69
2850,22468,56927.67
2851,22492,56947.64
2852,22488,56967.62
2853,22448,56987.59
2854,22388,57007.57
2855,22328,57027.54
2856,22284,57047.52
2857,22272,57067.49
2858,22276,57087.46
2859,22300,57107.44
2860,22324,57127.41
2861,22368,57147.39
2862,22404,57167.36
2863,22436,57187.34
2864,22468,57207.31
2865,22488,57227.29
2866,22504,57247.26
2867,22520,57267.24
2868,22532,57287.21
2869,22552,57307.19
2870,22572,57327.16
2871,22600,57347.13
2872,22628,57367.11
2873,22656,57387.08
2874,22684,57407.06
2875,22720,57427.03
2876,22748,57447.01
2877,22748,57466.98
2878,22724,57486.96
2879,22688,57506.93
2880,22652,57526.91
2881,22624,57546.88
2882,22616,57566.86
2883,22624,57586.83
2884,22636,57606.80
2885,22660,57626.78
2886,22684,57646.75
2887,22712,57666.73
2888,22736,57686.70
2889,22752,57706.68
2890,22768,57726.65
2891,22780,57746.63
2892,22792,57766.60
2893,22800,57786.58
2894,22820,57806.55
2895,22836,57826.53
2896,22860,57846.50
2897,22884,57866.47
2898,22904,57886.45
2899,22932,57906.42
2900,22956,57926.40
2901,22980,57946.37
2902,22976,57966.35
2903,22964,57986.32
2904,22936,58006.30
2905,22904,58026.27
2906,22884,58046.25
2907,22872,58066.22
2908,22880,58086.20
2909,22892,58106.17
2910,22912,58126.14
2911,22932,58146.12
2912,22952,58166.09
2913,22980,58186.07
2914,22996,58206.04
2915,23008,58226.02
2916,23020,58245.99
2917,23032,58265.97
2918,23044,58285.94
2919,23060,58305.92
2920,23080,58325.89
2921,23096,58345.87
2922,23116,58365.84
2923,23136,58385.81
2924,23152,58405.79
2925,23172,58425.76
2926,23188,58445.74
2927,23204,58465.71
2928,23228,58485.69
2929,23248,58505.66
2930,23264,58525.64
2931,23268,58545.61
2932,23256,58565.59
2933,23232,58585.56
2934,23212,58605.54
2935,23196,58625.51
2936,23192,58645.49
2937,23188,58665.46
2938,23200,58685.43
2939,23212,58705.41
2940,23224,58725.38
2941,23240,58745.36
2942,23256,58765.33
2943,23268,58785.31
2944,23280,58805.28
2945,23288,58825.26
2946,23292,58845.23
2947,23300,58865.21
2948,23308,58885.18
2949,23316,58905.16
2950,23332,58925.13
2951,23340,58945.10
2952,23356,58965.08
2953,23372,58985.05
2954,23388,59005.03
2955,23404,59025.00
2956,23420,59044.98
2957,23432,59064.95
2958,23444,59084.93
2959,23456,59104.90
2960,23472,59124.88
2961,23484,59144.85
2962,23500,59164.83
2963,23508,59184.80
2964,23504,59204.77
2965,23488,59224.75
2966,23476,59244.72
2967,23464,59264.70
2968,23456,59284.67
2969,23464,59304.65
2970,23472,59324.62
2971,23484,59344.60
2972,23500,59364.57
2973,23508,59384.55
2974,23524,59404.52
2975,23536,59424.50
2976,23544,59444.47
2977,23552,59464.44
2978,23552,59484.42
2979,23556,59504.39
2980,23560,59524.37
2981,23568,59544.34
2982,23572,59564.32
2983,23576,59584.29
2984,23588,59604.27
2985,23596,59624.24
2986,23604,59644.22
2987,23612,59664.19
2988,23620,59684.17
2989,23632,59704.14
2990,23636,59724.11
2991,23640,59744.09
2992,23648,59764.06
2993,23652,59784.04
2994,23656,59804.01
2995,23656,59823.99
2996,23640,59843.96
2997,23628,59863.94
2998,23616,59883.91
2999,23612,59903.89
