Sample_Index,IR_Value,Timestamp_ms
0,20472,0.00
1,20548,20.45
2,20620,40.90
3,20728,61.36
4,20860,81.81
5,20984,102.26
6,21092,122.71
7,21192,143.17
8,21280,163.62
9,21376,184.07
10,21468,204.52
11,21552,224.98
12,21628,245.43
13,21700,265.88
14,21756,286.33
15,21800,306.79
16,21852,327.24
17,21896,347.69
18,21940,368.14
19,21984,388.60
20,22024,409.05
21,22076,429.50
22,22128,449.95
23,22152,470.40
24,22172,490.86
25,22200,511.31
26,22236,531.76
27,22276,552.21
28,22280,572.67
29,22296,593.12
30,22332,613.57
31,22412,634.02
32,22488,654.48
33,22536,674.93
34,22564,695.38
35,22584,715.83
36,22600,736.29
37,22600,756.74
38,22596,777.19
39,22612,797.64
40,22612,818.10
41,22616,838.55
42,22624,859.00
43,22636,879.45
44,22648,899.90
45,22656,920.36
46,22668,940.81
47,22688,961.26
48,22704,981.71
49,22724,1002.17
50,22748,1022.62
51,22772,1043.07
52,22792,1063.52
53,22816,1083.98
54,22836,1104.43
55,22852,1124.88
56,22872,1145.33
57,22892,1165.79
58,22912,1186.24
59,22932,1206.69
60,22948,1227.14
61,22948,1247.59
62,22944,1268.05
63,22940,1288.50
64,22936,1308.95
65,22936,1329.40
66,22948,1349.86
67,22956,1370.31
68,22976,1390.76
69,22996,1411.21
70,23012,1431.67
71,23028,1452.12
72,23040,1472.57
73,23048,1493.02
74,23052,1513.48
75,23064,1533.93
76,23072,1554.38
77,23088,1574.83
78,23104,1595.29
79,23132,1615.74
80,23164,1636.19
81,23200,1656.64
82,23228,1677.09
83,23244,1697.55
84,23268,1718.00
85,23288,1738.45
86,23312,1758.90
87,23328,1779.36
88,23344,1799.81
89,23356,1820.26
90,23372,1840.71
91,23384,1861.17
92,23396,1881.62
93,23412,1902.07
94,23424,1922.52
95,23424,1942.98
96,23412,1963.43
97,23400,1983.88
98,23380,2004.33
99,23372,2024.79
100,23372,2045.24
101,23380,2065.69
102,23384,2086.14
103,23396,2106.59
104,23404,2127.05
105,23412,2147.50
106,23420,2167.95
107,23428,2188.40
108,23436,2208.86
109,23440,2229.31
110,23440,2249.76
111,23440,2270.21
112,23444,2290.67
113,23444,2311.12
114,23448,2331.57
115,23456,2352.02
116,23464,2372.48
117,23468,2392.93
118,23472,2413.38
119,23484,2433.83
120,23492,2454.29
121,23500,2474.74
122,23508,2495.19
123,23512,2515.64
124,23520,2536.09
125,23528,2556.55
126,23524,2577.00
127,23516,2597.45
128,23492,2617.90
129,23472,2638.36
130,23452,2658.81
131,23432,2679.26
132,23424,2699.71
133,23420,2720.17
134,23424,2740.62
135,23424,2761.07
136,23428,2781.52
137,23432,2801.98
138,23436,2822.43
139,23436,2842.88
140,23436,2863.33
141,23424,2883.79
142,23420,2904.24
143,23416,2924.69
144,23408,2945.14
145,23404,2965.59
146,23400,2986.05
147,23404,3006.50
148,23404,3026.95
149,23412,3047.40
150,23416,3067.86
151,23420,3088.31
152,23424,3108.76
153,23428,3129.21
154,23436,3149.67
155,23440,3170.12
156,23436,3190.57
157,23416,3211.02
158,23384,3231.48
159,23348,3251.93
160,23316,3272.38
161,23288,3292.83
162,23272,3313.29
163,23264,3333.74
164,23256,3354.19
165,23260,3374.64
166,23260,3395.09
167,23264,3415.55
168,23268,3436.00
169,23264,3456.45
170,23264,3476.90
171,23256,3497.36
172,23248,3517.81
173,23236,3538.26
174,23228,3558.71
175,23224,3579.17
176,23220,3599.62
177,23216,3620.07
178,23220,3640.52
179,23220,3660.98
180,23224,3681.43
181,23228,3701.88
182,23236,3722.33
183,23240,3742.78
184,23244,3763.24
185,23248,3783.69
186,23252,3804.14
187,23256,3824.59
188,23256,3845.05
189,23248,3865.50
190,23208,3885.95
191,23160,3906.40
192,23112,3926.86
193,23072,3947.31
194,23036,3967.76
195,23020,3988.21
196,23012,4008.67
197,23008,4029.12
198,23012,4049.57
199,23020,4070.02
200,23028,4090.48
201,23032,4110.93
202,23036,4131.38
203,23040,4151.83
204,23040,4172.28
205,23036,4192.74
206,23040,4213.19
207,23036,4233.64
208,23040,4254.09
209,23048,4274.55
210,23052,4295.00
211,23064,4315.45
212,23076,4335.90
213,23084,4356.36
214,23092,4376.81
215,23104,4397.26
216,23112,4417.71
217,23124,4438.17
218,23132,4458.62
219,23140,4479.07
220,23152,4499.52
221,23160,4519.98
222,23160,4540.43
223,23140,4560.88
224,23112,4581.33
225,23088,4601.78
226,23072,4622.24
227,23068,4642.69
228,23064,4663.14
229,23072,4683.59
230,23084,4704.05
231,23096,4724.50
232,23108,4744.95
233,23120,4765.40
234,23136,4785.86
235,23148,4806.31
236,23156,4826.76
237,23160,4847.21
238,23164,4867.67
239,23172,4888.12
240,23180,4908.57
241,23188,4929.02
242,23200,4949.48
243,23212,4969.93
244,23224,4990.38
245,23236,5010.83
246,23252,5031.28
247,23260,5051.74
248,23272,5072.19
249,23280,5092.64
250,23296,5113.09
251,23308,5133.55
252,23316,5154.00
253,23332,5174.45
254,23344,5194.90
255,23348,5215.36
256,23344,5235.81
257,23332,5256.26
258,23316,5276.71
259,23308,5297.17
260,23308,5317.62
261,23312,5338.07
262,23324,5358.52
263,23336,5378.98
264,23344,5399.43
265,23356,5419.88
266,23368,5440.33
267,23376,5460.78
268,23384,5481.24
269,23396,5501.69
270,23400,5522.14
271,23404,5542.59
272,23404,5563.05
273,23412,5583.50
274,23416,5603.95
275,23428,5624.40
276,23436,5644.86
277,23448,5665.31
278,23456,5685.76
279,23468,5706.21
280,23476,5726.67
281,23484,5747.12
282,23500,5767.57
283,23508,5788.02
284,23516,5808.47
285,23524,5828.93
286,23532,5849.38
287,23536,5869.83
288,23528,5890.28
289,23520,5910.74
290,23520,5931.19
291,23520,5951.64
292,23532,5972.09
293,23536,5992.55
294,23552,6013.00
295,23560,6033.45
296,23568,6053.90
297,23580,6074.36
298,23588,6094.81
299,23596,6115.26
300,23596,6135.71
301,23600,6156.17
302,23604,6176.62
303,23608,6197.07
304,23608,6217.52
305,23612,6237.97
306,23616,6258.43
307,23628,6278.88
308,23632,6299.33
309,23640,6319.78
310,23648,6340.24
311,23652,6360.69
312,23664,6381.14
313,23672,6401.59
314,23676,6422.05
315,23684,6442.50
316,23688,6462.95
317,23696,6483.40
318,23704,6503.86
319,23708,6524.31
320,23716,6544.76
321,23716,6565.21
322,23704,6585.67
323,23692,6606.12
324,23688,6626.57
325,23692,6647.02
326,23700,6667.47
327,23708,6687.93
328,23716,6708.38
329,23728,6728.83
330,23736,6749.28
331,23744,6769.74
332,23752,6790.19
333,23756,6810.64
334,23760,6831.09
335,23760,6851.55
336,23760,6872.00
337,23764,6892.45
338,23764,6912.90
339,23764,6933.36
340,23768,6953.81
341,23772,6974.26
342,23776,6994.71
343,23780,7015.17
344,23788,7035.62
345,23796,7056.07
346,23800,7076.52
347,23804,7096.97
348,23804,7117.43
349,23808,7137.88
350,23812,7158.33
351,23816,7178.78
352,23824,7199.24
353,23828,7219.69
354,23828,7240.14
355,23820,7260.59
356,23804,7281.05
357,23800,7301.50
358,23800,7321.95
359,23804,7342.40
360,23812,7362.86
361,23824,7383.31
362,23828,7403.76
363,23840,7424.21
364,23848,7444.67
365,23852,7465.12
366,23860,7485.57
367,23864,7506.02
368,23864,7526.47
369,23868,7546.93
370,23868,7567.38
371,23864,7587.83
372,23872,7608.28
373,23876,7628.74
374,23880,7649.19
375,23888,7669.64
376,23892,7690.09
377,23896,7710.55
378,23900,7731.00
379,23900,7751.45
380,23904,7771.90
381,23908,7792.36
382,23908,7812.81
383,23912,7833.26
384,23916,7853.71
385,23920,7874.17
386,23916,7894.62
387,23912,7915.07
388,23900,7935.52
389,23892,7955.97
390,23892,7976.43
391,23900,7996.88
392,23904,8017.33
393,23916,8037.78
394,23924,8058.24
395,23932,8078.69
396,23936,8099.14
397,23944,8119.59
398,23948,8140.05
399,23952,8160.50
400,23956,8180.95
401,23960,8201.40
402,23960,8221.86
403,23964,8242.31
404,23968,8262.76
405,23972,8283.21
406,23980,8303.66
407,23984,8324.12
408,23984,8344.57
409,23988,8365.02
410,23996,8385.47
411,23996,8405.93
412,24004,8426.38
413,24004,8446.83
414,24016,8467.28
415,24020,8487.74
416,24020,8508.19
417,24024,8528.64
418,24020,8549.09
419,24016,8569.55
420,24000,8590.00
421,23988,8610.45
422,23984,8630.90
423,23988,8651.36
424,23996,8671.81
425,24004,8692.26
426,24008,8712.71
427,24016,8733.16
428,24016,8753.62
429,24020,8774.07
430,24024,8794.52
431,24028,8814.97
432,24028,8835.43
433,24024,8855.88
434,24028,8876.33
435,24028,8896.78
436,24032,8917.24
437,24040,8937.69
438,24040,8958.14
439,24044,8978.59
440,24052,8999.05
441,24056,9019.50
442,24056,9039.95
443,24060,9060.40
444,24068,9080.86
445,24072,9101.31
446,24076,9121.76
447,24076,9142.21
448,24080,9162.66
449,24080,9183.12
450,24084,9203.57
451,24088,9224.02
452,24088,9244.47
453,24092,9264.93
454,24096,9285.38
455,24084,9305.83
456,24072,9326.28
457,24060,9346.74
458,24060,9367.19
459,24060,9387.64
460,24064,9408.09
461,24068,9428.55
462,24072,9449.00
463,24072,9469.45
464,24076,9489.90
465,24080,9510.36
466,24084,9530.81
467,24080,9551.26
468,24084,9571.71
469,24080,9592.16
470,24076,9612.62
471,24076,9633.07
472,24072,9653.52
473,24080,9673.97
474,24080,9694.43
475,24084,9714.88
476,24088,9735.33
477,24092,9755.78
478,24096,9776.24
479,24100,9796.69
480,24100,9817.14
481,24104,9837.59
482,24104,9858.05
483,24108,9878.50
484,24108,9898.95
485,24112,9919.40
486,24112,9939.86
487,24116,9960.31
488,24112,9980.76
489,24104,10001.21
490,24092,10021.66
491,24084,10042.12
492,24080,10062.57
493,24080,10083.02
494,24084,10103.47
495,24088,10123.93
496,24092,10144.38
497,24096,10164.83
498,24096,10185.28
499,24100,10205.74
500,24096,10226.19
501,24096,10246.64
502,24088,10267.09
503,24084,10287.55
504,24080,10308.00
505,24072,10328.45
506,24072,10348.90
507,24076,10369.35
508,24076,10389.81
509,24080,10410.26
510,24076,10430.71
511,24080,10451.16
512,24076,10471.62
513,24076,10492.07
514,24076,10512.52
515,24080,10532.97
516,24084,10553.43
517,24088,10573.88
518,24088,10594.33
519,24088,10614.78
520,24092,10635.24
521,24096,10655.69
522,24088,10676.14
523,24076,10696.59
524,24060,10717.05
525,24048,10737.50
526,24044,10757.95
527,24040,10778.40
528,24040,10798.85
529,24040,10819.31
530,24040,10839.76
531,24040,10860.21
532,24040,10880.66
533,24040,10901.12
534,24040,10921.57
535,24036,10942.02
536,24036,10962.47
537,24028,10982.93
538,24032,11003.38
539,24024,11023.83
540,24024,11044.28
541,24020,11064.74
542,24020,11085.19
543,24016,11105.64
544,24016,11126.09
545,24012,11146.55
546,24012,11167.00
547,24008,11187.45
548,24012,11207.90
549,24012,11228.35
550,24012,11248.81
551,24016,11269.26
552,24012,11289.71
553,24012,11310.16
554,24012,11330.62
555,24012,11351.07
556,24012,11371.52
557,24012,11391.97
558,24016,11412.43
559,24016,11432.88
560,24008,11453.33
561,23992,11473.78
562,23976,11494.24
563,23960,11514.69
564,23948,11535.14
565,23944,11555.59
566,23944,11576.05
567,23944,11596.50
568,23948,11616.95
569,23948,11637.40
570,23952,11657.85
571,23952,11678.31
572,23952,11698.76
573,23944,11719.21
574,23944,11739.66
575,23940,11760.12
576,23932,11780.57
577,23932,11801.02
578,23928,11821.47
579,23936,11841.93
580,23932,11862.38
581,23928,11882.83
582,23932,11903.28
583,23928,11923.74
584,23932,11944.19
585,23928,11964.64
586,23924,11985.09
587,23928,12005.55
588,23928,12026.00
589,23928,12046.45
590,23928,12066.90
591,23932,12087.35
592,23932,12107.81
593,23932,12128.26
594,23932,12148.71
595,23932,12169.16
596,23932,12189.62
597,23928,12210.07
598,23920,12230.52
599,23908,12250.97
600,23888,12271.43
601,23872,12291.88
602,23864,12312.33
603,23864,12332.78
604,23864,12353.24
605,23864,12373.69
606,23868,12394.14
607,23868,12414.59
608,23868,12435.05
609,23872,12455.50
610,23868,12475.95
611,23868,12496.40
612,23864,12516.85
613,23864,12537.31
614,23856,12557.76
615,23848,12578.21
616,23852,12598.66
617,23848,12619.12
618,23848,12639.57
619,23848,12660.02
620,23852,12680.47
621,23852,12700.93
622,23852,12721.38
623,23852,12741.83
624,23852,12762.28
625,23852,12782.74
626,23848,12803.19
627,23844,12823.64
628,23848,12844.09
629,23844,12864.54
630,23848,12885.00
631,23848,12905.45
632,23848,12925.90
633,23848,12946.35
634,23828,12966.81
635,23808,12987.26
636,23784,13007.71
637,23760,13028.16
638,23748,13048.62
639,23740,13069.07
640,23740,13089.52
641,23740,13109.97
642,23740,13130.43
643,23740,13150.88
644,23740,13171.33
645,23736,13191.78
646,23736,13212.24
647,23732,13232.69
648,23732,13253.14
649,23728,13273.59
650,23728,13294.04
651,23720,13314.50
652,23720,13334.95
653,23716,13355.40
654,23716,13375.85
655,23716,13396.31
656,23716,13416.76
657,23716,13437.21
658,23716,13457.66
659,23716,13478.12
660,23720,13498.57
661,23724,13519.02
662,23724,13539.47
663,23724,13559.93
664,23724,13580.38
665,23724,13600.83
666,23720,13621.28
667,23720,13641.74
668,23720,13662.19
669,23720,13682.64
670,23720,13703.09
671,23724,13723.54
672,23728,13744.00
673,23724,13764.45
674,23700,13784.90
675,23676,13805.35
676,23644,13825.81
677,23612,13846.26
678,23596,13866.71
679,23584,13887.16
680,23588,13907.62
681,23584,13928.07
682,23584,13948.52
683,23584,13968.97
684,23584,13989.43
685,23580,14009.88
686,23580,14030.33
687,23580,14050.78
688,23576,14071.24
689,23572,14091.69
690,23564,14112.14
691,23560,14132.59
692,23560,14153.04
693,23556,14173.50
694,23560,14193.95
695,23560,14214.40
696,23556,14234.85
697,23556,14255.31
698,23560,14275.76
699,23564,14296.21
700,23568,14316.66
701,23568,14337.12
702,23572,14357.57
703,23572,14378.02
704,23576,14398.47
705,23576,14418.93
706,23576,14439.38
707,23576,14459.83
708,23576,14480.28
709,23576,14500.74
710,23576,14521.19
711,23576,14541.64
712,23572,14562.09
713,23556,14582.54
714,23528,14603.00
715,23496,14623.45
716,23472,14643.90
717,23456,14664.35
718,23448,14684.81
719,23448,14705.26
720,23448,14725.71
721,23452,14746.16
722,23456,14766.62
723,23456,14787.07
724,23464,14807.52
725,23464,14827.97
726,23460,14848.43
727,23456,14868.88
728,23448,14889.33
729,23444,14909.78
730,23436,14930.23
731,23436,14950.69
732,23440,14971.14
733,23444,14991.59
734,23448,15012.04
735,23452,15032.50
736,23452,15052.95
737,23452,15073.40
738,23456,15093.85
739,23460,15114.31
740,23460,15134.76
741,23468,15155.21
742,23468,15175.66
743,23472,15196.12
744,23472,15216.57
745,23476,15237.02
746,23476,15257.47
747,23476,15277.93
748,23460,15298.38
749,23436,15318.83
750,23400,15339.28
751,23368,15359.73
752,23344,15380.19
753,23332,15400.64
754,23328,15421.09
755,23324,15441.54
756,23328,15462.00
757,23332,15482.45
758,23328,15502.90
759,23332,15523.35
760,23336,15543.81
761,23336,15564.26
762,23332,15584.71
763,23328,15605.16
764,23324,15625.62
765,23320,15646.07
766,23320,15666.52
767,23320,15686.97
768,23320,15707.43
769,23328,15727.88
770,23332,15748.33
771,23336,15768.78
772,23340,15789.23
773,23348,15809.69
774,23356,15830.14
775,23364,15850.59
776,23368,15871.04
777,23372,15891.50
778,23376,15911.95
779,23380,15932.40
780,23388,15952.85
781,23388,15973.31
782,23396,15993.76
783,23404,16014.21
784,23404,16034.66
785,23412,16055.12
786,23416,16075.57
787,23408,16096.02
788,23380,16116.47
789,23344,16136.93
790,23308,16157.38
791,23280,16177.83
792,23264,16198.28
793,23256,16218.73
794,23252,16239.19
795,23256,16259.64
796,23256,16280.09
797,23264,16300.54
798,23260,16321.00
799,23264,16341.45
800,23264,16361.90
801,23264,16382.35
802,23268,16402.81
803,23264,16423.26
804,23264,16443.71
805,23260,16464.16
806,23260,16484.62
807,23260,16505.07
808,23268,16525.52
809,23272,16545.97
810,23276,16566.43
811,23284,16586.88
812,23292,16607.33
813,23296,16627.78
814,23304,16648.23
815,23312,16668.69
816,23320,16689.14
817,23324,16709.59
818,23332,16730.04
819,23336,16750.50
820,23340,16770.95
821,23344,16791.40
822,23352,16811.85
823,23356,16832.31
824,23356,16852.76
825,23344,16873.21
826,23320,16893.66
827,23284,16914.12
828,23256,16934.57
829,23232,16955.02
830,23220,16975.47
831,23212,16995.93
832,23216,17016.38
833,23216,17036.83
834,23228,17057.28
835,23232,17077.73
836,23232,17098.19
837,23236,17118.64
838,23240,17139.09
839,23236,17159.54
840,23228,17180.00
841,23224,17200.45
842,23220,17220.90
843,23216,17241.35
844,23212,17261.81
845,23216,17282.26
846,23224,17302.71
847,23224,17323.16
848,23232,17343.62
849,23240,17364.07
850,23248,17384.52
851,23252,17404.97
852,23260,17425.42
853,23268,17445.88
854,23276,17466.33
855,23288,17486.78
856,23292,17507.23
857,23296,17527.69
858,23300,17548.14
859,23288,17568.59
860,23260,17589.04
861,23216,17609.50
862,23172,17629.95
863,23124,17650.40
864,23084,17670.85
865,23056,17691.31
866,23036,17711.76
867,23016,17732.21
868,22996,17752.66
869,22988,17773.12
870,22976,17793.57
871,22964,17814.02
872,22948,17834.47
873,22940,17854.92
874,22920,17875.38
875,22900,17895.83
876,22880,17916.28
877,22860,17936.73
878,22844,17957.19
879,22828,17977.64
880,22816,17998.09
881,22804,18018.54
882,22796,18039.00
883,22784,18059.45
884,22780,18079.90
885,22772,18100.35
886,22772,18120.81
887,22776,18141.26
888,22776,18161.71
889,22780,18182.16
890,22780,18202.62
891,22780,18223.07
892,22780,18243.52
893,22780,18263.97
894,22780,18284.42
895,22784,18304.88
896,22784,18325.33
897,22788,18345.78
898,22780,18366.23
899,22748,18386.69
900,22700,18407.14
901,22644,18427.59
902,22580,18448.04
903,22528,18468.50
904,22488,18488.95
905,22464,18509.40
906,22452,18529.85
907,22448,18550.31
908,22444,18570.76
909,22440,18591.21
910,22444,18611.66
911,22440,18632.12
912,22436,18652.57
913,22428,18673.02
914,22416,18693.47
915,22404,18713.92
916,22384,18734.38
917,22376,18754.83
918,22364,18775.28
919,22356,18795.73
920,22352,18816.19
921,22352,18836.64
922,22352,18857.09
923,22356,18877.54
924,22356,18898.00
925,22360,18918.45
926,22364,18938.90
927,22368,18959.35
928,22368,18979.81
929,22372,19000.26
930,22380,19020.71
931,22380,19041.16
932,22384,19061.62
933,22384,19082.07
934,22376,19102.52
935,22352,19122.97
936,22308,19143.42
937,22256,19163.88
938,22208,19184.33
939,22180,19204.78
940,22164,19225.23
941,22160,19245.69
942,22160,19266.14
943,22172,19286.59
944,22184,19307.04
945,22192,19327.50
946,22204,19347.95
947,22220,19368.40
948,22224,19388.85
949,22228,19409.31
950,22232,19429.76
951,22232,19450.21
952,22232,19470.66
953,22232,19491.11
954,22240,19511.57
955,22244,19532.02
956,22260,19552.47
957,22272,19572.92
958,22284,19593.38
959,22292,19613.83
960,22308,19634.28
961,22324,19654.73
962,22340,19675.19
963,22356,19695.64
964,22372,19716.09
965,22392,19736.54
966,22408,19757.00
967,22420,19777.45
968,22436,19797.90
969,22436,19818.35
970,22424,19838.81
971,22388,19859.26
972,22344,19879.71
973,22304,19900.16
974,22272,19920.61
975,22256,19941.07
976,22252,19961.52
977,22248,19981.97
978,22256,20002.42
979,22256,20022.88
980,22264,20043.33
981,22264,20063.78
982,22260,20084.23
983,22248,20104.69
984,22232,20125.14
985,22204,20145.59
986,22168,20166.04
987,22132,20186.50
988,22092,20206.95
989,22072,20227.40
990,22052,20247.85
991,22044,20268.31
992,22044,20288.76
993,22048,20309.21
994,22060,20329.66
995,22068,20350.11
996,22072,20370.57
997,22076,20391.02
998,22068,20411.47
999,22052,20431.92
1000,22028,20452.38
1001,22012,20472.83
1002,21996,20493.28
1003,21980,20513.73
1004,21952,20534.19
1005,21924,20554.64
1006,21876,20575.09
1007,21804,20595.54
1008,21728,20616.00
1009,21644,20636.45
1010,21572,20656.90
1011,21520,20677.35
1012,21500,20697.81
1013,21496,20718.26
1014,21492,20738.71
1015,21500,20759.16
1016,21504,20779.61
1017,21512,20800.07
1018,21512,20820.52
1019,21520,20840.97
1020,21536,20861.42
1021,21548,20881.88
1022,21560,20902.33
1023,21576,20922.78
1024,21608,20943.23
1025,21644,20963.69
1026,21692,20984.14
1027,21736,21004.59
1028,21784,21025.04
1029,21820,21045.50
1030,21852,21065.95
1031,21876,21086.40
1032,21888,21106.85
1033,21896,21127.31
1034,21896,21147.76
1035,21888,21168.21
1036,21876,21188.66
1037,21864,21209.11
1038,21860,21229.57
1039,21856,21250.02
1040,21844,21270.47
1041,21812,21290.92
1042,21768,21311.38
1043,21720,21331.83
1044,21672,21352.28
1045,21644,21372.73
1046,21628,21393.19
1047,21612,21413.64
1048,21604,21434.09
1049,21596,21454.54
1050,21600,21475.00
1051,21608,21495.45
1052,21612,21515.90
1053,21616,21536.35
1054,21608,21556.81
1055,21604,21577.26
1056,21604,21597.71
1057,21600,21618.16
1058,21600,21638.61
1059,21604,21659.07
1060,21608,21679.52
1061,21604,21699.97
1062,21604,21720.42
1063,21604,21740.88
1064,21600,21761.33
1065,21604,21781.78
1066,21624,21802.23
1067,21652,21822.69
1068,21668,21843.14
1069,21688,21863.59
1070,21712,21884.04
1071,21736,21904.50
1072,21748,21924.95
1073,21744,21945.40
1074,21720,21965.85
1075,21684,21986.30
1076,21652,22006.76
1077,21628,22027.21
1078,21620,22047.66
1079,21624,22068.11
1080,21628,22088.57
1081,21644,22109.02
1082,21664,22129.47
1083,21684,22149.92
1084,21700,22170.38
1085,21720,22190.83
1086,21736,22211.28
1087,21756,22231.73
1088,21768,22252.19
1089,21784,22272.64
1090,21788,22293.09
1091,21796,22313.54
1092,21808,22334.00
1093,21820,22354.45
1094,21836,22374.90
1095,21860,22395.35
1096,21876,22415.80
1097,21888,22436.26
1098,21896,22456.71
1099,21908,22477.16
1100,21920,22497.61
1101,21932,22518.07
1102,21936,22538.52
1103,21940,22558.97
1104,21940,22579.42
1105,21940,22599.88
1106,21916,22620.33
1107,21868,22640.78
1108,21804,22661.23
1109,21740,22681.69
1110,21696,22702.14
1111,21668,22722.59
1112,21656,22743.04
1113,21648,22763.50
1114,21644,22783.95
1115,21644,22804.40
1116,21644,22824.85
1117,21656,22845.30
1118,21660,22865.76
1119,21664,22886.21
1120,21664,22906.66
1121,21660,22927.11
1122,21656,22947.57
1123,21648,22968.02
1124,21636,22988.47
1125,21624,23008.92
1126,21616,23029.38
1127,21604,23049.83
1128,21596,23070.28
1129,21588,23090.73
1130,21588,23111.19
1131,21592,23131.64
1132,21596,23152.09
1133,21596,23172.54
1134,21600,23193.00
1135,21608,23213.45
1136,21612,23233.90
1137,21620,23254.35
1138,21624,23274.80
1139,21620,23295.26
1140,21600,23315.71
1141,21560,23336.16
1142,21516,23356.61
1143,21472,23377.07
1144,21452,23397.52
1145,21448,23417.97
1146,21448,23438.42
1147,21456,23458.88
1148,21460,23479.33
1149,21468,23499.78
1150,21480,23520.23
1151,21488,23540.69
1152,21496,23561.14
1153,21500,23581.59
1154,21500,23602.04
1155,21496,23622.50
1156,21488,23642.95
1157,21480,23663.40
1158,21472,23683.85
1159,21468,23704.30
1160,21464,23724.76
1161,21460,23745.21
1162,21468,23765.66
1163,21468,23786.11
1164,21476,23806.57
1165,21484,23827.02
1166,21496,23847.47
1167,21508,23867.92
1168,21520,23888.38
1169,21532,23908.83
1170,21544,23929.28
1171,21556,23949.73
1172,21572,23970.19
1173,21568,23990.64
1174,21544,24011.09
1175,21504,24031.54
1176,21464,24051.99
1177,21432,24072.45
1178,21408,24092.90
1179,21404,24113.35
1180,21404,24133.80
1181,21416,24154.26
1182,21424,24174.71
1183,21444,24195.16
1184,21460,24215.61
1185,21476,24236.07
1186,21484,24256.52
1187,21492,24276.97
1188,21500,24297.42
1189,21504,24317.88
1190,21504,24338.33
1191,21508,24358.78
1192,21512,24379.23
1193,21520,24399.69
1194,21528,24420.14
1195,21540,24440.59
1196,21552,24461.04
1197,21560,24481.49
1198,21580,24501.95
1199,21592,24522.40
1200,21604,24542.85
1201,21620,24563.30
1202,21632,24583.76
1203,21648,24604.21
1204,21660,24624.66
1205,21676,24645.11
1206,21688,24665.57
1207,21700,24686.02
1208,21704,24706.47
1209,21692,24726.92
1210,21656,24747.38
1211,21604,24767.83
1212,21552,24788.28
1213,21508,24808.73
1214,21480,24829.19
1215,21460,24849.64
1216,21460,24870.09
1217,21468,24890.54
1218,21476,24910.99
1219,21476,24931.45
1220,21492,24951.90
1221,21504,24972.35
1222,21516,24992.80
1223,21524,25013.26
1224,21532,25033.71
1225,21536,25054.16
1226,21536,25074.61
1227,21540,25095.07
1228,21540,25115.52
1229,21548,25135.97
1230,21552,25156.42
1231,21564,25176.88
1232,21568,25197.33
1233,21584,25217.78
1234,21596,25238.23
1235,21612,25258.69
1236,21628,25279.14
1237,21640,25299.59
1238,21656,25320.04
1239,21664,25340.49
1240,21676,25360.95
1241,21688,25381.40
1242,21700,25401.85
1243,21716,25422.30
1244,21728,25442.76
1245,21720,25463.21
1246,21696,25483.66
1247,21648,25504.11
1248,21604,25524.57
1249,21564,25545.02
1250,21544,25565.47
1251,21524,25585.92
1252,21520,25606.38
1253,21520,25626.83
1254,21524,25647.28
1255,21524,25667.73
1256,21532,25688.19
1257,21544,25708.64
1258,21548,25729.09
1259,21548,25749.54
1260,21544,25769.99
1261,21540,25790.45
1262,21540,25810.90
1263,21540,25831.35
1264,21532,25851.80
1265,21528,25872.26
1266,21528,25892.71
1267,21524,25913.16
1268,21520,25933.61
1269,21520,25954.07
1270,21524,25974.52
1271,21532,25994.97
1272,21552,26015.42
1273,21560,26035.88
1274,21568,26056.33
1275,21576,26076.78
1276,21588,26097.23
1277,21608,26117.69
1278,21620,26138.14
1279,21628,26158.59
1280,21604,26179.04
1281,21560,26199.49
1282,21516,26219.95
1283,21480,26240.40
1284,21444,26260.85
1285,21428,26281.30
1286,21412,26301.76
1287,21408,26322.21
1288,21416,26342.66
1289,21420,26363.11
1290,21424,26383.57
1291,21428,26404.02
1292,21436,26424.47
1293,21432,26444.92
1294,21424,26465.38
1295,21412,26485.83
1296,21404,26506.28
1297,21400,26526.73
1298,21388,26547.18
1299,21364,26567.64
1300,21336,26588.09
1301,21320,26608.54
1302,21324,26628.99
1303,21332,26649.45
1304,21344,26669.90
1305,21356,26690.35
1306,21360,26710.80
1307,21360,26731.26
1308,21356,26751.71
1309,21348,26772.16
1310,21352,26792.61
1311,21364,26813.07
1312,21360,26833.52
1313,21340,26853.97
1314,21300,26874.42
1315,21256,26894.88
1316,21216,26915.33
1317,21196,26935.78
1318,21180,26956.23
1319,21172,26976.68
1320,21156,26997.14
1321,21156,27017.59
1322,21172,27038.04
1323,21180,27058.49
1324,21180,27078.95
1325,21184,27099.40
1326,21188,27119.85
1327,21196,27140.30
1328,21212,27160.76
1329,21216,27181.21
1330,21212,27201.66
1331,21212,27222.11
1332,21220,27242.57
1333,21244,27263.02
1334,21276,27283.47
1335,21292,27303.92
1336,21304,27324.38
1337,21308,27344.83
1338,21308,27365.28
1339,21304,27385.73
1340,21308,27406.18
1341,21316,27426.64
1342,21332,27447.09
1343,21356,27467.54
1344,21380,27487.99
1345,21396,27508.45
1346,21404,27528.90
1347,21388,27549.35
1348,21348,27569.80
1349,21300,27590.26
1350,21256,27610.71
1351,21220,27631.16
1352,21216,27651.61
1353,21192,27672.07
1354,21204,27692.52
1355,21228,27712.97
1356,21272,27733.42
1357,21308,27753.88
1358,21336,27774.33
1359,21360,27794.78
1360,21372,27815.23
1361,21380,27835.68
1362,21380,27856.14
1363,21384,27876.59
1364,21388,27897.04
1365,21388,27917.49
1366,21392,27937.95
1367,21400,27958.40
1368,21412,27978.85
1369,21420,27999.30
1370,21436,28019.76
1371,21456,28040.21
1372,21472,28060.66
1373,21492,28081.11
1374,21512,28101.57
1375,21532,28122.02
1376,21544,28142.47
1377,21556,28162.92
1378,21564,28183.38
1379,21564,28203.83
1380,21540,28224.28
1381,21500,28244.73
1382,21460,28265.18
1383,21420,28285.64
1384,21408,28306.09
1385,21404,28326.54
1386,21408,28346.99
1387,21416,28367.45
1388,21432,28387.90
1389,21452,28408.35
1390,21468,28428.80
1391,21480,28449.26
1392,21488,28469.71
1393,21496,28490.16
1394,21504,28510.61
1395,21512,28531.07
1396,21520,28551.52
1397,21532,28571.97
1398,21540,28592.42
1399,21556,28612.87
1400,21564,28633.33
1401,21572,28653.78
1402,21580,28674.23
1403,21596,28694.68
1404,21608,28715.14
1405,21624,28735.59
1406,21636,28756.04
1407,21644,28776.49
1408,21656,28796.95
1409,21656,28817.40
1410,21644,28837.85
1411,21612,28858.30
1412,21572,28878.76
1413,21532,28899.21
1414,21504,28919.66
1415,21488,28940.11
1416,21492,28960.57
1417,21500,28981.02
1418,21512,29001.47
1419,21524,29021.92
1420,21544,29042.37
1421,21564,29062.83
1422,21580,29083.28
1423,21588,29103.73
1424,21600,29124.18
1425,21604,29144.64
1426,21612,29165.09
1427,21616,29185.54
1428,21620,29205.99
1429,21628,29226.45
1430,21632,29246.90
1431,21644,29267.35
1432,21652,29287.80
1433,21664,29308.26
1434,21672,29328.71
1435,21684,29349.16
1436,21696,29369.61
1437,21708,29390.07
1438,21724,29410.52
1439,21736,29430.97
1440,21728,29451.42
1441,21700,29471.87
1442,21656,29492.33
1443,21608,29512.78
1444,21572,29533.23
1445,21548,29553.68
1446,21544,29574.14
1447,21548,29594.59
1448,21556,29615.04
1449,21564,29635.49
1450,21572,29655.95
1451,21580,29676.40
1452,21588,29696.85
1453,21600,29717.30
1454,21608,29737.76
1455,21608,29758.21
1456,21608,29778.66
1457,21608,29799.11
1458,21604,29819.57
1459,21600,29840.02
1460,21600,29860.47
1461,21600,29880.92
1462,21604,29901.37
1463,21608,29921.83
1464,21616,29942.28
1465,21628,29962.73
1466,21640,29983.18
1467,21652,30003.64
1468,21664,30024.09
1469,21672,30044.54
1470,21668,30064.99
1471,21648,30085.45
1472,21612,30105.90
1473,21568,30126.35
1474,21528,30146.80
1475,21500,30167.26
1476,21488,30187.71
1477,21488,30208.16
1478,21496,30228.61
1479,21508,30249.07
1480,21520,30269.52
1481,21536,30289.97
1482,21556,30310.42
1483,21560,30330.87
1484,21568,30351.33
1485,21572,30371.78
1486,21576,30392.23
1487,21568,30412.68
1488,21572,30433.14
1489,21576,30453.59
1490,21584,30474.04
1491,21592,30494.49
1492,21604,30514.95
1493,21608,30535.40
1494,21616,30555.85
1495,21624,30576.30
1496,21632,30596.76
1497,21644,30617.21
1498,21660,30637.66
1499,21668,30658.11
1500,21668,30678.56
1501,21648,30699.02
1502,21612,30719.47
1503,21568,30739.92
1504,21528,30760.37
1505,21504,30780.83
1506,21492,30801.28
1507,21496,30821.73
1508,21504,30842.18
1509,21520,30862.64
1510,21532,30883.09
1511,21552,30903.54
1512,21568,30923.99
1513,21576,30944.45
1514,21584,30964.90
1515,21588,30985.35
1516,21580,31005.80
1517,21580,31026.26
1518,21580,31046.71
1519,21580,31067.16
1520,21584,31087.61
1521,21592,31108.06
1522,21604,31128.52
1523,21616,31148.97
1524,21620,31169.42
1525,21632,31189.87
1526,21644,31210.33
1527,21648,31230.78
1528,21656,31251.23
1529,21652,31271.68
1530,21628,31292.14
1531,21592,31312.59
1532,21552,31333.04
1533,21516,31353.49
1534,21496,31373.95
1535,21488,31394.40
1536,21484,31414.85
1537,21496,31435.30
1538,21508,31455.76
1539,21524,31476.21
1540,21540,31496.66
1541,21556,31517.11
1542,21564,31537.56
1543,21572,31558.02
1544,21576,31578.47
1545,21580,31598.92
1546,21580,31619.37
1547,21576,31639.83
1548,21580,31660.28
1549,21584,31680.73
1550,21588,31701.18
1551,21596,31721.64
1552,21604,31742.09
1553,21612,31762.54
1554,21620,31782.99
1555,21636,31803.45
1556,21648,31823.90
1557,21656,31844.35
1558,21664,31864.80
1559,21664,31885.26
1560,21648,31905.71
1561,21608,31926.16
1562,21560,31946.61
1563,21512,31967.06
1564,21480,31987.52
1565,21464,32007.97
1566,21464,32028.42
1567,21472,32048.87
1568,21480,32069.33
1569,21492,32089.78
1570,21512,32110.23
1571,21524,32130.68
1572,21536,32151.14
1573,21536,32171.59
1574,21540,32192.04
1575,21540,32212.49
1576,21536,32232.95
1577,21536,32253.40
1578,21536,32273.85
1579,21540,32294.30
1580,21544,32314.76
1581,21556,32335.21
1582,21560,32355.66
1583,21568,32376.11
1584,21572,32396.56
1585,21580,32417.02
1586,21588,32437.47
1587,21600,32457.92
1588,21616,32478.37
1589,21628,32498.83
1590,21636,32519.28
1591,21636,32539.73
1592,21616,32560.18
1593,21572,32580.64
1594,21524,32601.09
1595,21472,32621.54
1596,21432,32641.99
1597,21412,32662.45
1598,21396,32682.90
1599,21396,32703.35
1600,21404,32723.80
1601,21420,32744.26
1602,21436,32764.71
1603,21448,32785.16
1604,21460,32805.61
1605,21464,32826.06
1606,21468,32846.52
1607,21464,32866.97
1608,21464,32887.42
1609,21468,32907.87
1610,21468,32928.33
1611,21476,32948.78
1612,21492,32969.23
1613,21504,32989.68
1614,21520,33010.14
1615,21536,33030.59
1616,21544,33051.04
1617,21556,33071.49
1618,21572,33091.95
1619,21588,33112.40
1620,21608,33132.85
1621,21624,33153.30
1622,21640,33173.75
1623,21640,33194.21
1624,21620,33214.66
1625,21584,33235.11
1626,21540,33255.56
1627,21504,33276.02
1628,21476,33296.47
1629,21468,33316.92
1630,21472,33337.37
1631,21484,33357.83
1632,21496,33378.28
1633,21512,33398.73
1634,21532,33419.18
1635,21544,33439.64
1636,21556,33460.09
1637,21556,33480.54
1638,21552,33500.99
1639,21548,33521.45
1640,21540,33541.90
1641,21536,33562.35
1642,21532,33582.80
1643,21532,33603.25
1644,21532,33623.71
1645,21536,33644.16
1646,21540,33664.61
1647,21548,33685.06
1648,21556,33705.52
1649,21564,33725.97
1650,21580,33746.42
1651,21592,33766.87
1652,21604,33787.33
1653,21604,33807.78
1654,21592,33828.23
1655,21556,33848.68
1656,21512,33869.14
1657,21472,33889.59
1658,21440,33910.04
1659,21428,33930.49
1660,21428,33950.95
1661,21440,33971.40
1662,21456,33991.85
1663,21472,34012.30
1664,21496,34032.75
1665,21516,34053.21
1666,21528,34073.66
1667,21536,34094.11
1668,21536,34114.56
1669,21532,34135.02
1670,21532,34155.47
1671,21532,34175.92
1672,21536,34196.37
1673,21544,34216.83
1674,21552,34237.28
1675,21560,34257.73
1676,21572,34278.18
1677,21584,34298.64
1678,21596,34319.09
1679,21604,34339.54
1680,21612,34359.99
1681,21620,34380.45
1682,21632,34400.90
1683,21632,34421.35
1684,21624,34441.80
1685,21588,34462.25
1686,21540,34482.71
1687,21488,34503.16
1688,21444,34523.61
1689,21424,34544.06
1690,21412,34564.52
1691,21416,34584.97
1692,21428,34605.42
1693,21440,34625.87
1694,21464,34646.33
1695,21480,34666.78
1696,21500,34687.23
1697,21504,34707.68
1698,21516,34728.14
1699,21516,34748.59
1700,21516,34769.04
1701,21512,34789.49
1702,21516,34809.95
1703,21516,34830.40
1704,21524,34850.85
1705,21536,34871.30
1706,21548,34891.75
1707,21560,34912.21
1708,21568,34932.66
1709,21584,34953.11
1710,21600,34973.56
1711,21612,34994.02
1712,21624,35014.47
1713,21636,35034.92
1714,21628,35055.37
1715,21596,35075.83
1716,21548,35096.28
1717,21492,35116.73
1718,21448,35137.18
1719,21424,35157.64
1720,21412,35178.09
1721,21412,35198.54
1722,21424,35218.99
1723,21440,35239.44
1724,21456,35259.90
1725,21476,35280.35
1726,21496,35300.80
1727,21504,35321.25
1728,21508,35341.71
1729,21508,35362.16
1730,21508,35382.61
1731,21508,35403.06
1732,21504,35423.52
1733,21508,35443.97
1734,21512,35464.42
1735,21524,35484.87
1736,21532,35505.33
1737,21544,35525.78
1738,21556,35546.23
1739,21572,35566.68
1740,21584,35587.14
1741,21600,35607.59
1742,21620,35628.04
1743,21628,35648.49
1744,21612,35668.94
1745,21580,35689.40
1746,21532,35709.85
1747,21484,35730.30
1748,21452,35750.75
1749,21440,35771.21
1750,21444,35791.66
1751,21452,35812.11
1752,21468,35832.56
1753,21488,35853.02
1754,21512,35873.47
1755,21532,35893.92
1756,21548,35914.37
1757,21556,35934.83
1758,21560,35955.28
1759,21560,35975.73
1760,21556,35996.18
1761,21556,36016.64
1762,21560,36037.09
1763,21564,36057.54
1764,21576,36077.99
1765,21584,36098.44
1766,21600,36118.90
1767,21608,36139.35
1768,21620,36159.80
1769,21628,36180.25
1770,21640,36200.71
1771,21652,36221.16
1772,21664,36241.61
1773,21656,36262.06
1774,21620,36282.52
1775,21572,36302.97
1776,21528,36323.42
1777,21492,36343.87
1778,21472,36364.33
1779,21472,36384.78
1780,21476,36405.23
1781,21488,36425.68
1782,21504,36446.14
1783,21524,36466.59
1784,21544,36487.04
1785,21552,36507.49
1786,21560,36527.94
1787,21560,36548.40
1788,21560,36568.85
1789,21556,36589.30
1790,21556,36609.75
1791,21556,36630.21
1792,21560,36650.66
1793,21568,36671.11
1794,21576,36691.56
1795,21592,36712.02
1796,21604,36732.47
1797,21616,36752.92
1798,21628,36773.37
1799,21644,36793.83
1800,21656,36814.28
1801,21668,36834.73
1802,21680,36855.18
1803,21680,36875.64
1804,21656,36896.09
1805,21612,36916.54
1806,21556,36936.99
1807,21508,36957.44
1808,21472,36977.90
1809,21460,36998.35
1810,21456,37018.80
1811,21468,37039.25
1812,21480,37059.71
1813,21488,37080.16
1814,21500,37100.61
1815,21512,37121.06
1816,21524,37141.52
1817,21528,37161.97
1818,21524,37182.42
1819,21520,37202.87
1820,21520,37223.33
1821,21516,37243.78
1822,21516,37264.23
1823,21520,37284.68
1824,21524,37305.14
1825,21528,37325.59
1826,21540,37346.04
1827,21552,37366.49
1828,21564,37386.94
1829,21572,37407.40
1830,21588,37427.85
1831,21600,37448.30
1832,21612,37468.75
1833,21624,37489.21
1834,21624,37509.66
1835,21608,37530.11
1836,21564,37550.56
1837,21512,37571.02
1838,21456,37591.47
1839,21416,37611.92
1840,21392,37632.37
1841,21388,37652.83
1842,21392,37673.28
1843,21404,37693.73
1844,21416,37714.18
1845,21428,37734.63
1846,21444,37755.09
1847,21460,37775.54
1848,21472,37795.99
1849,21476,37816.44
1850,21480,37836.90
1851,21476,37857.35
1852,21476,37877.80
1853,21476,37898.25
1854,21476,37918.71
1855,21484,37939.16
1856,21492,37959.61
1857,21504,37980.06
1858,21512,38000.52
1859,21524,38020.97
1860,21536,38041.42
1861,21552,38061.87
1862,21564,38082.33
1863,21580,38102.78
1864,21588,38123.23
1865,21600,38143.68
1866,21612,38164.13
1867,21616,38184.59
1868,21608,38205.04
1869,21576,38225.49
1870,21528,38245.94
1871,21464,38266.40
1872,21420,38286.85
1873,21396,38307.30
1874,21388,38327.75
1875,21392,38348.21
1876,21400,38368.66
1877,21412,38389.11
1878,21432,38409.56
1879,21444,38430.02
1880,21460,38450.47
1881,21472,38470.92
1882,21480,38491.37
1883,21484,38511.83
1884,21480,38532.28
1885,21476,38552.73
1886,21476,38573.18
1887,21480,38593.63
1888,21484,38614.09
1889,21496,38634.54
1890,21508,38654.99
1891,21524,38675.44
1892,21540,38695.90
1893,21552,38716.35
1894,21568,38736.80
1895,21580,38757.25
1896,21596,38777.71
1897,21604,38798.16
1898,21608,38818.61
1899,21616,38839.06
1900,21620,38859.52
1901,21620,38879.97
1902,21600,38900.42
1903,21560,38920.87
1904,21500,38941.33
1905,21440,38961.78
1906,21392,38982.23
1907,21368,39002.68
1908,21364,39023.13
1909,21368,39043.59
1910,21376,39064.04
1911,21392,39084.49
1912,21404,39104.94
1913,21424,39125.40
1914,21436,39145.85
1915,21444,39166.30
1916,21448,39186.75
1917,21448,39207.21
1918,21440,39227.66
1919,21436,39248.11
1920,21428,39268.56
1921,21428,39289.02
1922,21432,39309.47
1923,21444,39329.92
1924,21456,39350.37
1925,21464,39370.83
1926,21476,39391.28
1927,21484,39411.73
1928,21496,39432.18
1929,21508,39452.63
1930,21520,39473.09
1931,21536,39493.54
1932,21540,39513.99
1933,21552,39534.44
1934,21560,39554.90
1935,21576,39575.35
1936,21584,39595.80
1937,21584,39616.25
1938,21564,39636.71
1939,21512,39657.16
1940,21452,39677.61
1941,21388,39698.06
1942,21336,39718.52
1943,21308,39738.97
1944,21296,39759.42
1945,21300,39779.87
1946,21308,39800.32
1947,21324,39820.78
1948,21332,39841.23
1949,21348,39861.68
1950,21360,39882.13
1951,21372,39902.59
1952,21376,39923.04
1953,21376,39943.49
1954,21380,39963.94
1955,21380,39984.40
1956,21380,40004.85
1957,21384,40025.30
1958,21392,40045.75
1959,21404,40066.21
1960,21416,40086.66
1961,21432,40107.11
1962,21448,40127.56
1963,21464,40148.02
1964,21480,40168.47
1965,21492,40188.92
1966,21508,40209.37
1967,21524,40229.82
1968,21536,40250.28
1969,21544,40270.73
1970,21556,40291.18
1971,21568,40311.63
1972,21580,40332.09
1973,21584,40352.54
1974,21576,40372.99
1975,21540,40393.44
1976,21480,40413.90
1977,21416,40434.35
1978,21364,40454.80
1979,21336,40475.25
1980,21320,40495.71
1981,21324,40516.16
1982,21332,40536.61
1983,21344,40557.06
1984,21360,40577.52
1985,21376,40597.97
1986,21388,40618.42
1987,21396,40638.87
1988,21404,40659.32
1989,21408,40679.78
1990,21408,40700.23
1991,21408,40720.68
1992,21412,40741.13
1993,21416,40761.59
1994,21424,40782.04
1995,21432,40802.49
1996,21444,40822.94
1997,21460,40843.40
1998,21480,40863.85
1999,21496,40884.30
2000,21512,40904.75
2001,21532,40925.21
2002,21548,40945.66
2003,21564,40966.11
2004,21576,40986.56
2005,21588,41007.02
2006,21600,41027.47
2007,21612,41047.92
2008,21624,41068.37
2009,21636,41088.82
2010,21616,41109.28
2011,21572,41129.73
2012,21516,41150.18
2013,21464,41170.63
2014,21428,41191.09
2015,21412,41211.54
2016,21412,41231.99
2017,21420,41252.44
2018,21432,41272.90
2019,21448,41293.35
2020,21472,41313.80
2021,21488,41334.25
2022,21508,41354.71
2023,21520,41375.16
2024,21528,41395.61
2025,21528,41416.06
2026,21532,41436.52
2027,21532,41456.97
2028,21540,41477.42
2029,21548,41497.87
2030,21556,41518.32
2031,21572,41538.78
2032,21592,41559.23
2033,21612,41579.68
2034,21628,41600.13
2035,21648,41620.59
2036,21668,41641.04
2037,21684,41661.49
2038,21704,41681.94
2039,21720,41702.40
2040,21740,41722.85
2041,21760,41743.30
2042,21776,41763.75
2043,21796,41784.21
2044,21808,41804.66
2045,21816,41825.11
2046,21800,41845.56
2047,21764,41866.02
2048,21728,41886.47
2049,21688,41906.92
2050,21668,41927.37
2051,21664,41947.82
2052,21668,41968.28
2053,21680,41988.73
2054,21696,42009.18
2055,21712,42029.63
2056,21732,42050.09
2057,21752,42070.54
2058,21772,42090.99
2059,21788,42111.44
2060,21796,42131.90
2061,21800,42152.35
2062,21804,42172.80
2063,21808,42193.25
2064,21816,42213.71
2065,21824,42234.16
2066,21836,42254.61
2067,21852,42275.06
2068,21868,42295.51
2069,21880,42315.97
2070,21896,42336.42
2071,21912,42356.87
2072,21928,42377.32
2073,21940,42397.78
2074,21956,42418.23
2075,21960,42438.68
2076,21976,42459.13
2077,21984,42479.59
2078,21992,42500.04
2079,22000,42520.49
2080,22008,42540.94
2081,22012,42561.40
2082,22004,42581.85
2083,21992,42602.30
2084,21960,42622.75
2085,21928,42643.21
2086,21900,42663.66
2087,21888,42684.11
2088,21880,42704.56
2089,21880,42725.01
2090,21892,42745.47
2091,21900,42765.92
2092,21912,42786.37
2093,21920,42806.82
2094,21936,42827.28
2095,21944,42847.73
2096,21952,42868.18
2097,21956,42888.63
2098,21964,42909.09
2099,21968,42929.54
2100,21972,42949.99
2101,21972,42970.44
2102,21980,42990.90
2103,21996,43011.35
2104,22008,43031.80
2105,22020,43052.25
2106,22028,43072.71
2107,22036,43093.16
2108,22048,43113.61
2109,22060,43134.06
2110,22072,43154.51
2111,22080,43174.97
2112,22084,43195.42
2113,22092,43215.87
2114,22104,43236.32
2115,22112,43256.78
2116,22124,43277.23
2117,22132,43297.68
2118,22128,43318.13
2119,22120,43338.59
2120,22092,43359.04
2121,22060,43379.49
2122,22028,43399.94
2123,22004,43420.40
2124,21996,43440.85
2125,21996,43461.30
2126,22000,43481.75
2127,22008,43502.21
2128,22012,43522.66
2129,22020,43543.11
2130,22028,43563.56
2131,22040,43584.01
2132,22044,43604.47
2133,22040,43624.92
2134,22040,43645.37
2135,22036,43665.82
2136,22040,43686.28
2137,22040,43706.73
2138,22044,43727.18
2139,22040,43747.63
2140,22044,43768.09
2141,22052,43788.54
2142,22056,43808.99
2143,22064,43829.44
2144,22072,43849.90
2145,22076,43870.35
2146,22084,43890.80
2147,22092,43911.25
2148,22096,43931.71
2149,22104,43952.16
2150,22112,43972.61
2151,22116,43993.06
2152,22108,44013.51
2153,22088,44033.97
2154,22060,44054.42
2155,22028,44074.87
2156,22000,44095.32
2157,21980,44115.78
2158,21968,44136.23
2159,21964,44156.68
2160,21964,44177.13
2161,21960,44197.59
2162,21964,44218.04
2163,21972,44238.49
2164,21976,44258.94
2165,21992,44279.40
2166,21996,44299.85
2167,22004,44320.30
2168,22008,44340.75
2169,22016,44361.20
2170,22020,44381.66
2171,22024,44402.11
2172,22032,44422.56
2173,22040,44443.01
2174,22048,44463.47
2175,22060,44483.92
2176,22068,44504.37
2177,22080,44524.82
2178,22096,44545.28
2179,22116,44565.73
2180,22124,44586.18
2181,22136,44606.63
2182,22148,44627.09
2183,22160,44647.54
2184,22176,44667.99
2185,22188,44688.44
2186,22196,44708.90
2187,22212,44729.35
2188,22212,44749.80
2189,22204,44770.25
2190,22184,44790.70
2191,22160,44811.16
2192,22144,44831.61
2193,22128,44852.06
2194,22116,44872.51
2195,22116,44892.97
2196,22120,44913.42
2197,22124,44933.87
2198,22132,44954.32
2199,22144,44974.78
2200,22156,44995.23
2201,22160,45015.68
2202,22168,45036.13
2203,22172,45056.59
2204,22172,45077.04
2205,22172,45097.49
2206,22172,45117.94
2207,22176,45138.40
2208,22180,45158.85
2209,22188,45179.30
2210,22196,45199.75
2211,22208,45220.20
2212,22216,45240.66
2213,22224,45261.11
2214,22232,45281.56
2215,22248,45302.01
2216,22260,45322.47
2217,22268,45342.92
2218,22276,45363.37
2219,22288,45383.82
2220,22300,45404.28
2221,22308,45424.73
2222,22312,45445.18
2223,22300,45465.63
2224,22276,45486.09
2225,22248,45506.54
2226,22224,45526.99
2227,22204,45547.44
2228,22196,45567.90
2229,22196,45588.35
2230,22200,45608.80
2231,22204,45629.25
2232,22212,45649.70
2233,22220,45670.16
2234,22228,45690.61
2235,22228,45711.06
2236,22232,45731.51
2237,22232,45751.97
2238,22228,45772.42
2239,22224,45792.87
2240,22220,45813.32
2241,22224,45833.78
2242,22220,45854.23
2243,22228,45874.68
2244,22236,45895.13
2245,22240,45915.59
2246,22240,45936.04
2247,22248,45956.49
2248,22256,45976.94
2249,22260,45997.40
2250,22264,46017.85
2251,22272,46038.30
2252,22276,46058.75
2253,22288,46079.20
2254,22288,46099.66
2255,22276,46120.11
2256,22256,46140.56
2257,22220,46161.01
2258,22192,46181.47
2259,22164,46201.92
2260,22152,46222.37
2261,22148,46242.82
2262,22152,46263.28
2263,22156,46283.73
2264,22164,46304.18
2265,22172,46324.63
2266,22184,46345.09
2267,22188,46365.54
2268,22188,46385.99
2269,22188,46406.44
2270,22188,46426.90
2271,22184,46447.35
2272,22184,46467.80
2273,22184,46488.25
2274,22184,46508.70
2275,22188,46529.16
2276,22192,46549.61
2277,22196,46570.06
2278,22200,46590.51
2279,22212,46610.97
2280,22224,46631.42
2281,22224,46651.87
2282,22232,46672.32
2283,22244,46692.78
2284,22248,46713.23
2285,22252,46733.68
2286,22260,46754.13
2287,22256,46774.59
2288,22236,46795.04
2289,22200,46815.49
2290,22152,46835.94
2291,22116,46856.39
2292,22088,46876.85
2293,22068,46897.30
2294,22064,46917.75
2295,22072,46938.20
2296,22080,46958.66
2297,22092,46979.11
2298,22100,46999.56
2299,22112,47020.01
2300,22124,47040.47
2301,22128,47060.92
2302,22132,47081.37
2303,22132,47101.82
2304,22132,47122.28
2305,22128,47142.73
2306,22128,47163.18
2307,22136,47183.63
2308,22136,47204.09
2309,22148,47224.54
2310,22156,47244.99
2311,22164,47265.44
2312,22172,47285.89
2313,22180,47306.35
2314,22188,47326.80
2315,22196,47347.25
2316,22208,47367.70
2317,22220,47388.16
2318,22228,47408.61
2319,22228,47429.06
2320,22204,47449.51
2321,22160,47469.97
2322,22112,47490.42
2323,22064,47510.87
2324,22028,47531.32
2325,22004,47551.78
2326,21996,47572.23
2327,22000,47592.68
2328,22004,47613.13
2329,22016,47633.59
2330,22024,47654.04
2331,22028,47674.49
2332,22036,47694.94
2333,22036,47715.39
2334,22032,47735.85
2335,22032,47756.30
2336,22028,47776.75
2337,22024,47797.20
2338,22028,47817.66
2339,22032,47838.11
2340,22028,47858.56
2341,22032,47879.01
2342,22028,47899.47
2343,22028,47919.92
2344,22032,47940.37
2345,22040,47960.82
2346,22044,47981.28
2347,22056,48001.73
2348,22064,48022.18
2349,22068,48042.63
2350,22064,48063.09
2351,22032,48083.54
2352,21992,48103.99
2353,21940,48124.44
2354,21888,48144.89
2355,21856,48165.35
2356,21836,48185.80
2357,21836,48206.25
2358,21836,48226.70
2359,21844,48247.16
2360,21852,48267.61
2361,21860,48288.06
2362,21872,48308.51
2363,21876,48328.97
2364,21876,48349.42
2365,21872,48369.87
2366,21864,48390.32
2367,21860,48410.78
2368,21860,48431.23
2369,21860,48451.68
2370,21864,48472.13
2371,21876,48492.59
2372,21884,48513.04
2373,21888,48533.49
2374,21896,48553.94
2375,21900,48574.39
2376,21908,48594.85
2377,21920,48615.30
2378,21928,48635.75
2379,21936,48656.20
2380,21948,48676.66
2381,21956,48697.11
2382,21944,48717.56
2383,21908,48738.01
2384,21860,48758.47
2385,21804,48778.92
2386,21760,48799.37
2387,21740,48819.82
2388,21728,48840.28
2389,21732,48860.73
2390,21740,48881.18
2391,21748,48901.63
2392,21752,48922.08
2393,21764,48942.54
2394,21764,48962.99
2395,21764,48983.44
2396,21764,49003.89
2397,21764,49024.35
2398,21764,49044.80
2399,21756,49065.25
2400,21760,49085.70
2401,21764,49106.16
2402,21768,49126.61
2403,21776,49147.06
2404,21784,49167.51
2405,21792,49187.97
2406,21796,49208.42
2407,21808,49228.87
2408,21816,49249.32
2409,21828,49269.78
2410,21840,49290.23
2411,21848,49310.68
2412,21860,49331.13
2413,21864,49351.58
2414,21872,49372.04
2415,21880,49392.49
2416,21872,49412.94
2417,21840,49433.39
2418,21788,49453.85
2419,21732,49474.30
2420,21684,49494.75
2421,21648,49515.20
2422,21636,49535.66
2423,21632,49556.11
2424,21636,49576.56
2425,21644,49597.01
2426,21648,49617.47
2427,21660,49637.92
2428,21668,49658.37
2429,21680,49678.82
2430,21688,49699.28
2431,21692,49719.73
2432,21692,49740.18
2433,21688,49760.63
2434,21688,49781.08
2435,21692,49801.54
2436,21700,49821.99
2437,21712,49842.44
2438,21724,49862.89
2439,21736,49883.35
2440,21752,49903.80
2441,21764,49924.25
2442,21780,49944.70
2443,21792,49965.16
2444,21804,49985.61
2445,21816,50006.06
2446,21824,50026.51
2447,21836,50046.97
2448,21844,50067.42
2449,21852,50087.87
2450,21864,50108.32
2451,21880,50128.78
2452,21884,50149.23
2453,21864,50169.68
2454,21828,50190.13
2455,21772,50210.58
2456,21716,50231.04
2457,21684,50251.49
2458,21660,50271.94
2459,21652,50292.39
2460,21656,50312.85
2461,21668,50333.30
2462,21680,50353.75
2463,21696,50374.20
2464,21712,50394.66
2465,21724,50415.11
2466,21736,50435.56
2467,21744,50456.01
2468,21744,50476.47
2469,21748,50496.92
2470,21752,50517.37
2471,21756,50537.82
2472,21760,50558.28
2473,21772,50578.73
2474,21784,50599.18
2475,21800,50619.63
2476,21816,50640.08
2477,21832,50660.54
2478,21848,50680.99
2479,21864,50701.44
2480,21880,50721.89
2481,21892,50742.35
2482,21912,50762.80
2483,21924,50783.25
2484,21936,50803.70
2485,21944,50824.16
2486,21952,50844.61
2487,21964,50865.06
2488,21972,50885.51
2489,21968,50905.97
2490,21944,50926.42
2491,21900,50946.87
2492,21856,50967.32
2493,21812,50987.78
2494,21788,51008.23
2495,21776,51028.68
2496,21768,51049.13
2497,21768,51069.58
2498,21768,51090.04
2499,21776,51110.49
2500,21784,51130.94
2501,21792,51151.39
2502,21804,51171.85
2503,21808,51192.30
2504,21812,51212.75
2505,21816,51233.20
2506,21820,51253.66
2507,21824,51274.11
2508,21828,51294.56
2509,21836,51315.01
2510,21848,51335.47
2511,21856,51355.92
2512,21872,51376.37
2513,21884,51396.82
2514,21900,51417.27
2515,21916,51437.73
2516,21932,51458.18
2517,21948,51478.63
2518,21964,51499.08
2519,21972,51519.54
2520,21984,51539.99
2521,21992,51560.44
2522,22004,51580.89
2523,22016,51601.35
2524,22028,51621.80
2525,22040,51642.25
2526,22044,51662.70
2527,22052,51683.16
2528,22064,51703.61
2529,22068,51724.06
2530,22080,51744.51
2531,22080,51764.97
2532,22064,51785.42
2533,22032,51805.87
2534,21992,51826.32
2535,21956,51846.77
2536,21932,51867.23
2537,21916,51887.68
2538,21912,51908.13
2539,21912,51928.58
2540,21916,51949.04
2541,21920,51969.49
2542,21928,51989.94
2543,21940,52010.39
2544,21952,52030.85
2545,21964,52051.30
2546,21968,52071.75
2547,21976,52092.20
2548,21976,52112.66
2549,21980,52133.11
2550,21988,52153.56
2551,21996,52174.01
2552,22000,52194.47
2553,22012,52214.92
2554,22024,52235.37
2555,22036,52255.82
2556,22052,52276.27
2557,22064,52296.73
2558,22076,52317.18
2559,22084,52337.63
2560,22092,52358.08
2561,22100,52378.54
2562,22112,52398.99
2563,22120,52419.44
2564,22128,52439.89
2565,22144,52460.35
2566,22152,52480.80
2567,22160,52501.25
2568,22168,52521.70
2569,22176,52542.16
2570,22184,52562.61
2571,22192,52583.06
2572,22200,52603.51
2573,22208,52623.97
2574,22216,52644.42
2575,22216,52664.87
2576,22208,52685.32
2577,22180,52705.77
2578,22148,52726.23
2579,22104,52746.68
2580,22068,52767.13
2581,22044,52787.58
2582,22032,52808.04
2583,22028,52828.49
2584,22024,52848.94
2585,22024,52869.39
2586,22028,52889.85
2587,22032,52910.30
2588,22036,52930.75
2589,22044,52951.20
2590,22044,52971.66
2591,22044,52992.11
2592,22040,53012.56
2593,22036,53033.01
2594,22036,53053.47
2595,22040,53073.92
2596,22044,53094.37
2597,22052,53114.82
2598,22056,53135.27
2599,22064,53155.73
2600,22076,53176.18
2601,22084,53196.63
2602,22092,53217.08
2603,22104,53237.54
2604,22112,53257.99
2605,22120,53278.44
2606,22128,53298.89
2607,22136,53319.35
2608,22144,53339.80
2609,22152,53360.25
2610,22164,53380.70
2611,22176,53401.16
2612,22184,53421.61
2613,22188,53442.06
2614,22196,53462.51
2615,22204,53482.96
2616,22212,53503.42
2617,22224,53523.87
2618,22232,53544.32
2619,22240,53564.77
2620,22236,53585.23
2621,22220,53605.68
2622,22192,53626.13
2623,22156,53646.58
2624,22120,53667.04
2625,22096,53687.49
2626,22076,53707.94
2627,22072,53728.39
2628,22072,53748.85
2629,22080,53769.30
2630,22084,53789.75
2631,22096,53810.20
2632,22104,53830.66
2633,22116,53851.11
2634,22124,53871.56
2635,22128,53892.01
2636,22128,53912.46
2637,22128,53932.92
2638,22132,53953.37
2639,22132,53973.82
2640,22136,53994.27
2641,22144,54014.73
2642,22152,54035.18
2643,22164,54055.63
2644,22176,54076.08
2645,22184,54096.54
2646,22188,54116.99
2647,22200,54137.44
2648,22208,54157.89
2649,22216,54178.35
2650,22224,54198.80
2651,22236,54219.25
2652,22240,54239.70
2653,22248,54260.16
2654,22256,54280.61
2655,22260,54301.06
2656,22264,54321.51
2657,22268,54341.96
2658,22268,54362.42
2659,22272,54382.87
2660,22272,54403.32
2661,22268,54423.77
2662,22240,54444.23
2663,22204,54464.68
2664,22160,54485.13
2665,22116,54505.58
2666,22084,54526.04
2667,22060,54546.49
2668,22048,54566.94
2669,22040,54587.39
2670,22040,54607.85
2671,22036,54628.30
2672,22040,54648.75
2673,22044,54669.20
2674,22052,54689.66
2675,22056,54710.11
2676,22056,54730.56
2677,22056,54751.01
2678,22052,54771.46
2679,22048,54791.92
2680,22048,54812.37
2681,22048,54832.82
2682,22052,54853.27
2683,22060,54873.73
2684,22064,54894.18
2685,22072,54914.63
2686,22084,54935.08
2687,22092,54955.54
2688,22096,54975.99
2689,22104,54996.44
2690,22116,55016.89
2691,22124,55037.35
2692,22128,55057.80
2693,22136,55078.25
2694,22144,55098.70
2695,22156,55119.16
2696,22164,55139.61
2697,22168,55160.06
2698,22176,55180.51
2699,22180,55200.96
2700,22188,55221.42
2701,22184,55241.87
2702,22160,55262.32
2703,22128,55282.77
2704,22076,55303.23
2705,22028,55323.68
2706,21988,55344.13
2707,21956,55364.58
2708,21940,55385.04
2709,21932,55405.49
2710,21928,55425.94
2711,21928,55446.39
2712,21932,55466.85
2713,21940,55487.30
2714,21948,55507.75
2715,21952,55528.20
2716,21956,55548.66
2717,21956,55569.11
2718,21956,55589.56
2719,21952,55610.01
2720,21952,55630.46
2721,21952,55650.92
2722,21956,55671.37
2723,21960,55691.82
2724,21964,55712.27
2725,21976,55732.73
2726,21984,55753.18
2727,21996,55773.63
2728,22008,55794.08
2729,22024,55814.54
2730,22036,55834.99
2731,22040,55855.44
2732,22052,55875.89
2733,22064,55896.35
2734,22076,55916.80
2735,22084,55937.25
2736,22096,55957.70
2737,22096,55978.15
2738,22080,55998.61
2739,22044,56019.06
2740,21996,56039.51
2741,21948,56059.96
2742,21912,56080.42
2743,21888,56100.87
2744,21876,56121.32
2745,21872,56141.77
2746,21876,56162.23
2747,21884,56182.68
2748,21892,56203.13
2749,21904,56223.58
2750,21912,56244.04
2751,21912,56264.49
2752,21916,56284.94
2753,21916,56305.39
2754,21908,56325.85
2755,21908,56346.30
2756,21908,56366.75
2757,21908,56387.20
2758,21912,56407.65
2759,21916,56428.11
2760,21924,56448.56
2761,21936,56469.01
2762,21940,56489.46
2763,21948,56509.92
2764,21964,56530.37
2765,21968,56550.82
2766,21980,56571.27
2767,21992,56591.73
2768,22000,56612.18
2769,22008,56632.63
2770,22004,56653.08
2771,21984,56673.54
2772,21952,56693.99
2773,21908,56714.44
2774,21864,56734.89
2775,21832,56755.35
2776,21808,56775.80
2777,21808,56796.25
2778,21808,56816.70
2779,21816,56837.15
2780,21828,56857.61
2781,21836,56878.06
2782,21848,56898.51
2783,21856,56918.96
2784,21860,56939.42
2785,21864,56959.87
2786,21868,56980.32
2787,21868,57000.77
2788,21868,57021.23
2789,21872,57041.68
2790,21880,57062.13
2791,21888,57082.58
2792,21896,57103.04
2793,21908,57123.49
2794,21916,57143.94
2795,21924,57164.39
2796,21936,57184.85
2797,21948,57205.30
2798,21964,57225.75
2799,21976,57246.20
2800,21988,57266.65
2801,22004,57287.11
2802,22016,57307.56
2803,22024,57328.01
2804,22012,57348.46
2805,21984,57368.92
2806,21944,57389.37
2807,21900,57409.82
2808,21860,57430.27
2809,21836,57450.73
2810,21820,57471.18
2811,21820,57491.63
2812,21824,57512.08
2813,21824,57532.54
2814,21832,57552.99
2815,21840,57573.44
2816,21852,57593.89
2817,21852,57614.35
2818,21860,57634.80
2819,21860,57655.25
2820,21864,57675.70
2821,21864,57696.15
2822,21868,57716.61
2823,21868,57737.06
2824,21868,57757.51
2825,21876,57777.96
2826,21876,57798.42
2827,21888,57818.87
2828,21896,57839.32
2829,21908,57859.77
2830,21916,57880.23
2831,21928,57900.68
2832,21940,57921.13
2833,21952,57941.58
2834,21960,57962.04
2835,21972,57982.49
2836,21972,58002.94
2837,21956,58023.39
2838,21920,58043.84
2839,21880,58064.30
2840,21840,58084.75
2841,21808,58105.20
2842,21792,58125.65
2843,21788,58146.11
2844,21792,58166.56
2845,21800,58187.01
2846,21808,58207.46
2847,21820,58227.92
2848,21836,58248.37
2849,21844,58268.82
2850,21852,58289.27
2851,21860,58309.73
2852,21856,58330.18
2853,21860,58350.63
2854,21864,58371.08
2855,21864,58391.54
2856,21868,58411.99
2857,21876,58432.44
2858,21880,58452.89
2859,21892,58473.34
2860,21904,58493.80
2861,21912,58514.25
2862,21928,58534.70
2863,21932,58555.15
2864,21944,58575.61
2865,21956,58596.06
2866,21964,58616.51
2867,21968,58636.96
2868,21944,58657.42
2869,21908,58677.87
2870,21860,58698.32
2871,21812,58718.77
2872,21784,58739.23
2873,21768,58759.68
2874,21756,58780.13
2875,21760,58800.58
2876,21760,58821.04
2877,21764,58841.49
2878,21776,58861.94
2879,21784,58882.39
2880,21792,58902.84
2881,21800,58923.30
2882,21796,58943.75
2883,21796,58964.20
2884,21792,58984.65
2885,21788,59005.11
2886,21784,59025.56
2887,21780,59046.01
2888,21784,59066.46
2889,21788,59086.92
2890,21788,59107.37
2891,21796,59127.82
2892,21804,59148.27
2893,21804,59168.73
2894,21812,59189.18
2895,21816,59209.63
2896,21824,59230.08
2897,21828,59250.54
2898,21828,59270.99
2899,21816,59291.44
2900,21776,59311.89
2901,21728,59332.34
2902,21676,59352.80
2903,21640,59373.25
2904,21616,59393.70
2905,21604,59414.15
2906,21604,59434.61
2907,21608,59455.06
2908,21612,59475.51
2909,21620,59495.96
2910,21628,59516.42
2911,21632,59536.87
2912,21636,59557.32
2913,21640,59577.77
2914,21640,59598.23
2915,21644,59618.68
2916,21640,59639.13
2917,21644,59659.58
2918,21644,59680.04
2919,21652,59700.49
2920,21656,59720.94
2921,21668,59741.39
2922,21680,59761.84
2923,21688,59782.30
2924,21700,59802.75
2925,21712,59823.20
2926,21724,59843.65
2927,21736,59864.11
2928,21748,59884.56
2929,21760,59905.01
2930,21768,59925.46
2931,21780,59945.92
2932,21788,59966.37
2933,21776,59986.82
2934,21744,60007.27
2935,21688,60027.73
2936,21636,60048.18
2937,21592,60068.63
2938,21568,60089.08
2939,21556,60109.54
2940,21548,60129.99
2941,21544,60150.44
2942,21552,60170.89
2943,21556,60191.34
2944,21564,60211.80
2945,21580,60232.25
2946,21584,60252.70
2947,21588,60273.15
2948,21592,60293.61
2949,21588,60314.06
2950,21588,60334.51
2951,21584,60354.96
2952,21588,60375.42
2953,21592,60395.87
2954,21600,60416.32
2955,21608,60436.77
2956,21624,60457.23
2957,21636,60477.68
2958,21648,60498.13
2959,21664,60518.58
2960,21672,60539.03
2961,21692,60559.49
2962,21700,60579.94
2963,21716,60600.39
2964,21724,60620.84
2965,21740,60641.30
2966,21752,60661.75
2967,21756,60682.20
2968,21744,60702.65
2969,21700,60723.11
2970,21648,60743.56
2971,21600,60764.01
2972,21564,60784.46
2973,21552,60804.92
2974,21548,60825.37
2975,21552,60845.82
2976,21560,60866.27
2977,21572,60886.73
2978,21584,60907.18
2979,21600,60927.63
2980,21612,60948.08
2981,21620,60968.53
2982,21624,60988.99
2983,21624,61009.44
2984,21628,61029.89
2985,21628,61050.34
2986,21632,61070.80
2987,21636,61091.25
2988,21644,61111.70
2989,21656,61132.15
2990,21668,61152.61
2991,21680,61173.06
2992,21692,61193.51
2993,21704,61213.96
2994,21712,61234.42
2995,21724,61254.87
2996,21740,61275.32
2997,21752,61295.77
2998,21760,61316.23
2999,21768,61336.68
