Sample_Index,IR_Value,Timestamp_ms
0,21568,0.00
1,21616,19.97
2,21632,39.94
3,21520,59.91
4,21308,79.88
5,21272,99.85
6,21876,119.83
7,22516,139.80
8,22880,159.77
9,23080,179.74
10,23216,199.71
11,23316,219.68
12,23416,239.65
13,23524,259.62
14,23644,279.59
15,23752,299.56
16,23844,319.54
17,23924,339.51
18,23992,359.48
19,24060,379.45
20,24120,399.42
21,24168,419.39
22,24200,439.36
23,24212,459.33
24,24208,479.30
25,24192,499.27
26,24164,519.24
27,24124,539.22
28,24088,559.19
29,24060,579.16
30,24036,599.13
31,24020,619.10
32,23972,639.07
33,23888,659.04
34,23776,679.01
35,23660,698.98
36,23548,718.95
37,23460,738.93
38,23392,758.90
39,23356,778.87
40,23336,798.84
41,23320,818.81
42,23320,838.78
43,23308,858.75
44,23304,878.72
45,23292,898.69
46,23280,918.66
47,23264,938.63
48,23248,958.61
49,23232,978.58
50,23224,998.55
51,23224,1018.52
52,23220,1038.49
53,23228,1058.46
54,23236,1078.43
55,23248,1098.40
56,23264,1118.37
57,23280,1138.34
58,23296,1158.32
59,23312,1178.29
60,23336,1198.26
61,23356,1218.23
62,23372,1238.20
63,23392,1258.17
64,23404,1278.14
65,23424,1298.11
66,23440,1318.08
67,23456,1338.05
68,23472,1358.02
69,23492,1378.00
70,23512,1397.97
71,23536,1417.94
72,23548,1437.91
73,23560,1457.88
74,23544,1477.85
75,23504,1497.82
76,23432,1517.79
77,23356,1537.76
78,23296,1557.73
79,23268,1577.71
80,23260,1597.68
81,23260,1617.65
82,23272,1637.62
83,23284,1657.59
84,23296,1677.56
85,23312,1697.53
86,23332,1717.50
87,23336,1737.47
88,23344,1757.44
89,23340,1777.41
90,23352,1797.39
91,23392,1817.36
92,23420,1837.33
93,23448,1857.30
94,23480,1877.27
95,23512,1897.24
96,23540,1917.21
97,23576,1937.18
98,23612,1957.15
99,23636,1977.12
100,23664,1997.10
101,23692,2017.07
102,23696,2037.04
103,23704,2057.01
104,23708,2076.98
105,23716,2096.95
106,23732,2116.92
107,23756,2136.89
108,23784,2156.86
109,23800,2176.83
110,23816,2196.80
111,23824,2216.78
112,23812,2236.75
113,23772,2256.72
114,23716,2276.69
115,23648,2296.66
116,23584,2316.63
117,23544,2336.60
118,23508,2356.57
119,23496,2376.54
120,23500,2396.51
121,23508,2416.48
122,23520,2436.46
123,23540,2456.43
124,23552,2476.40
125,23556,2496.37
126,23560,2516.34
127,23552,2536.31
128,23544,2556.28
129,23540,2576.25
130,23540,2596.22
131,23548,2616.19
132,23556,2636.17
133,23568,2656.14
134,23584,2676.11
135,23596,2696.08
136,23612,2716.05
137,23628,2736.02
138,23644,2755.99
139,23660,2775.96
140,23672,2795.93
141,23688,2815.90
142,23708,2835.87
143,23724,2855.85
144,23740,2875.82
145,23752,2895.79
146,23752,2915.76
147,23724,2935.73
148,23680,2955.70
149,23628,2975.67
150,23576,2995.64
151,23532,3015.61
152,23504,3035.58
153,23492,3055.56
154,23484,3075.53
155,23492,3095.50
156,23512,3115.47
157,23532,3135.44
158,23556,3155.41
159,23572,3175.38
160,23564,3195.35
161,23556,3215.32
162,23544,3235.29
163,23532,3255.26
164,23528,3275.24
165,23532,3295.21
166,23536,3315.18
167,23552,3335.15
168,23560,3355.12
169,23572,3375.09
170,23576,3395.06
171,23584,3415.03
172,23588,3435.00
173,23596,3454.97
174,23612,3474.95
175,23616,3494.92
176,23632,3514.89
177,23636,3534.86
178,23608,3554.83
179,23564,3574.80
180,23492,3594.77
181,23420,3614.74
182,23348,3634.71
183,23304,3654.68
184,23276,3674.65
185,23264,3694.63
186,23268,3714.60
187,23284,3734.57
188,23304,3754.54
189,23328,3774.51
190,23336,3794.48
191,23332,3814.45
192,23332,3834.42
193,23324,3854.39
194,23312,3874.36
195,23312,3894.34
196,23312,3914.31
197,23320,3934.28
198,23328,3954.25
199,23336,3974.22
200,23352,3994.19
201,23368,4014.16
202,23384,4034.13
203,23408,4054.10
204,23424,4074.07
205,23444,4094.04
206,23456,4114.02
207,23472,4133.99
208,23492,4153.96
209,23504,4173.93
210,23528,4193.90
211,23536,4213.87
212,23496,4233.84
213,23408,4253.81
214,23292,4273.78
215,23168,4293.75
216,23060,4313.73
217,22972,4333.70
218,22904,4353.67
219,22864,4373.64
220,22848,4393.61
221,22848,4413.58
222,22860,4433.55
223,22876,4453.52
224,22884,4473.49
225,22892,4493.46
226,22888,4513.43
227,22884,4533.41
228,22872,4553.38
229,22864,4573.35
230,22864,4593.32
231,22872,4613.29
232,22880,4633.26
233,22896,4653.23
234,22912,4673.20
235,22932,4693.17
236,22964,4713.14
237,22992,4733.12
238,23020,4753.09
239,23040,4773.06
240,23060,4793.03
241,23076,4813.00
242,23104,4832.97
243,23128,4852.94
244,23160,4872.91
245,23188,4892.88
246,23204,4912.85
247,23176,4932.82
248,23108,4952.80
249,22996,4972.77
250,22880,4992.74
251,22780,5012.71
252,22720,5032.68
253,22712,5052.65
254,22720,5072.62
255,22740,5092.59
256,22756,5112.56
257,22776,5132.53
258,22788,5152.51
259,22808,5172.48
260,22840,5192.45
261,22860,5212.42
262,22880,5232.39
263,22888,5252.36
264,22896,5272.33
265,22904,5292.30
266,22928,5312.27
267,22960,5332.24
268,22992,5352.21
269,23024,5372.19
270,23056,5392.16
271,23092,5412.13
272,23128,5432.10
273,23168,5452.07
274,23204,5472.04
275,23240,5492.01
276,23276,5511.98
277,23308,5531.95
278,23336,5551.92
279,23364,5571.90
280,23400,5591.87
281,23432,5611.84
282,23460,5631.81
283,23480,5651.78
284,23480,5671.75
285,23448,5691.72
286,23396,5711.69
287,23344,5731.66
288,23308,5751.63
289,23284,5771.60
290,23272,5791.58
291,23276,5811.55
292,23284,5831.52
293,23296,5851.49
294,23316,5871.46
295,23340,5891.43
296,23356,5911.40
297,23376,5931.37
298,23388,5951.34
299,23396,5971.31
300,23408,5991.29
301,23420,6011.26
302,23432,6031.23
303,23452,6051.20
304,23468,6071.17
305,23492,6091.14
306,23516,6111.11
307,23536,6131.08
308,23552,6151.05
309,23572,6171.02
310,23596,6190.99
311,23616,6210.97
312,23632,6230.94
313,23652,6250.91
314,23676,6270.88
315,23692,6290.85
316,23708,6310.82
317,23724,6330.79
318,23740,6350.76
319,23752,6370.73
320,23772,6390.70
321,23788,6410.68
322,23804,6430.65
323,23808,6450.62
324,23788,6470.59
325,23756,6490.56
326,23728,6510.53
327,23704,6530.50
328,23692,6550.47
329,23688,6570.44
330,23688,6590.41
331,23700,6610.38
332,23708,6630.36
333,23720,6650.33
334,23728,6670.30
335,23740,6690.27
336,23740,6710.24
337,23748,6730.21
338,23756,6750.18
339,23760,6770.15
340,23768,6790.12
341,23772,6810.09
342,23776,6830.06
343,23788,6850.04
344,23800,6870.01
345,23812,6889.98
346,23824,6909.95
347,23836,6929.92
348,23852,6949.89
349,23864,6969.86
350,23876,6989.83
351,23888,7009.80
352,23896,7029.77
353,23904,7049.75
354,23916,7069.72
355,23928,7089.69
356,23940,7109.66
357,23948,7129.63
358,23956,7149.60
359,23964,7169.57
360,23976,7189.54
361,23980,7209.51
362,23976,7229.48
363,23956,7249.45
364,23936,7269.43
365,23920,7289.40
366,23916,7309.37
367,23916,7329.34
368,23920,7349.31
369,23924,7369.28
370,23932,7389.25
371,23940,7409.22
372,23948,7429.19
373,23964,7449.16
374,23968,7469.14
375,23972,7489.11
376,23972,7509.08
377,23972,7529.05
378,23976,7549.02
379,23976,7568.99
380,23988,7588.96
381,23992,7608.93
382,24000,7628.90
383,24012,7648.87
384,24020,7668.84
385,24028,7688.82
386,24040,7708.79
387,24044,7728.76
388,24052,7748.73
389,24060,7768.70
390,24068,7788.67
391,24072,7808.64
392,24080,7828.61
393,24084,7848.58
394,24092,7868.55
395,24100,7888.53
396,24100,7908.50
397,24108,7928.47
398,24112,7948.44
399,24116,7968.41
400,24112,7988.38
401,24100,8008.35
402,24080,8028.32
403,24068,8048.29
404,24064,8068.26
405,24064,8088.23
406,24068,8108.21
407,24072,8128.18
408,24080,8148.15
409,24088,8168.12
410,24092,8188.09
411,24100,8208.06
412,24104,8228.03
413,24108,8248.00
414,24112,8267.97
415,24112,8287.94
416,24120,8307.92
417,24120,8327.89
418,24128,8347.86
419,24132,8367.83
420,24140,8387.80
421,24144,8407.77
422,24148,8427.74
423,24152,8447.71
424,24160,8467.68
425,24168,8487.65
426,24172,8507.62
427,24172,8527.60
428,24180,8547.57
429,24184,8567.54
430,24188,8587.51
431,24192,8607.48
432,24192,8627.45
433,24196,8647.42
434,24204,8667.39
435,24208,8687.36
436,24216,8707.33
437,24220,8727.31
438,24224,8747.28
439,24228,8767.25
440,24232,8787.22
441,24236,8807.19
442,24236,8827.16
443,24220,8847.13
444,24204,8867.10
445,24188,8887.07
446,24192,8907.04
447,24192,8927.01
448,24196,8946.99
449,24208,8966.96
450,24208,8986.93
451,24212,9006.90
452,24220,9026.87
453,24228,9046.84
454,24228,9066.81
455,24236,9086.78
456,24236,9106.75
457,24236,9126.72
458,24240,9146.70
459,24240,9166.67
460,24240,9186.64
461,24248,9206.61
462,24252,9226.58
463,24256,9246.55
464,24260,9266.52
465,24264,9286.49
466,24264,9306.46
467,24268,9326.43
468,24268,9346.40
469,24276,9366.38
470,24276,9386.35
471,24284,9406.32
472,24288,9426.29
473,24288,9446.26
474,24292,9466.23
475,24296,9486.20
476,24296,9506.17
477,24304,9526.14
478,24312,9546.11
479,24316,9566.09
480,24316,9586.06
481,24328,9606.03
482,24332,9626.00
483,24340,9645.97
484,24344,9665.94
485,24344,9685.91
486,24336,9705.88
487,24320,9725.85
488,24308,9745.82
489,24300,9765.79
490,24304,9785.77
491,24308,9805.74
492,24308,9825.71
493,24312,9845.68
494,24320,9865.65
495,24328,9885.62
496,24332,9905.59
497,24332,9925.56
498,24332,9945.53
499,24336,9965.50
500,24336,9985.48
501,24328,10005.45
502,24332,10025.42
503,24324,10045.39
504,24332,10065.36
505,24332,10085.33
506,24336,10105.30
507,24340,10125.27
508,24340,10145.24
509,24344,10165.21
510,24344,10185.18
511,24352,10205.16
512,24348,10225.13
513,24360,10245.10
514,24364,10265.07
515,24364,10285.04
516,24372,10305.01
517,24372,10324.98
518,24376,10344.95
519,24380,10364.92
520,24384,10384.89
521,24392,10404.87
522,24400,10424.84
523,24404,10444.81
524,24404,10464.78
525,24408,10484.75
526,24412,10504.72
527,24408,10524.69
528,24392,10544.66
529,24376,10564.63
530,24360,10584.60
531,24356,10604.57
532,24356,10624.55
533,24360,10644.52
534,24360,10664.49
535,24360,10684.46
536,24360,10704.43
537,24360,10724.40
538,24364,10744.37
539,24364,10764.34
540,24364,10784.31
541,24360,10804.28
542,24360,10824.26
543,24352,10844.23
544,24348,10864.20
545,24348,10884.17
546,24348,10904.14
547,24352,10924.11
548,24352,10944.08
549,24356,10964.05
550,24360,10984.02
551,24364,11003.99
552,24368,11023.96
553,24368,11043.94
554,24372,11063.91
555,24368,11083.88
556,24376,11103.85
557,24376,11123.82
558,24384,11143.79
559,24388,11163.76
560,24384,11183.73
561,24388,11203.70
562,24388,11223.67
563,24392,11243.64
564,24396,11263.62
565,24396,11283.59
566,24400,11303.56
567,24404,11323.53
568,24404,11343.50
569,24396,11363.47
570,24368,11383.44
571,24344,11403.41
572,24320,11423.38
573,24304,11443.35
574,24296,11463.33
575,24288,11483.30
576,24284,11503.27
577,24276,11523.24
578,24268,11543.21
579,24260,11563.18
580,24260,11583.15
581,24256,11603.12
582,24256,11623.09
583,24252,11643.06
584,24248,11663.03
585,24240,11683.01
586,24236,11702.98
587,24232,11722.95
588,24228,11742.92
589,24228,11762.89
590,24228,11782.86
591,24228,11802.83
592,24232,11822.80
593,24232,11842.77
594,24236,11862.74
595,24232,11882.72
596,24232,11902.69
597,24232,11922.66
598,24236,11942.63
599,24236,11962.60
600,24240,11982.57
601,24236,12002.54
602,24236,12022.51
603,24236,12042.48
604,24236,12062.45
605,24236,12082.42
606,24236,12102.40
607,24240,12122.37
608,24240,12142.34
609,24240,12162.31
610,24244,12182.28
611,24240,12202.25
612,24232,12222.22
613,24204,12242.19
614,24176,12262.16
615,24144,12282.13
616,24120,12302.11
617,24104,12322.08
618,24084,12342.05
619,24076,12362.02
620,24068,12381.99
621,24056,12401.96
622,24048,12421.93
623,24044,12441.90
624,24044,12461.87
625,24044,12481.84
626,24036,12501.81
627,24032,12521.79
628,24024,12541.76
629,24016,12561.73
630,24008,12581.70
631,24004,12601.67
632,24000,12621.64
633,24000,12641.61
634,24000,12661.58
635,24000,12681.55
636,23996,12701.52
637,23992,12721.50
638,23996,12741.47
639,23992,12761.44
640,23996,12781.41
641,24000,12801.38
642,24004,12821.35
643,24008,12841.32
644,24012,12861.29
645,24020,12881.26
646,24024,12901.23
647,24024,12921.20
648,24032,12941.18
649,24040,12961.15
650,24048,12981.12
651,24056,13001.09
652,24048,13021.06
653,24024,13041.03
654,23996,13061.00
655,23964,13080.97
656,23932,13100.94
657,23912,13120.91
658,23896,13140.89
659,23888,13160.86
660,23880,13180.83
661,23872,13200.80
662,23872,13220.77
663,23868,13240.74
664,23868,13260.71
665,23872,13280.68
666,23872,13300.65
667,23868,13320.62
668,23872,13340.59
669,23864,13360.57
670,23856,13380.54
671,23856,13400.51
672,23860,13420.48
673,23856,13440.45
674,23864,13460.42
675,23868,13480.39
676,23872,13500.36
677,23880,13520.33
678,23884,13540.30
679,23892,13560.28
680,23900,13580.25
681,23904,13600.22
682,23908,13620.19
683,23916,13640.16
684,23928,13660.13
685,23940,13680.10
686,23948,13700.07
687,23944,13720.04
688,23928,13740.01
689,23904,13759.98
690,23864,13779.96
691,23832,13799.93
692,23812,13819.90
693,23796,13839.87
694,23788,13859.84
695,23788,13879.81
696,23792,13899.78
697,23792,13919.75
698,23800,13939.72
699,23804,13959.69
700,23812,13979.67
701,23816,13999.64
702,23812,14019.61
703,23812,14039.58
704,23808,14059.55
705,23808,14079.52
706,23808,14099.49
707,23812,14119.46
708,23816,14139.43
709,23824,14159.40
710,23828,14179.37
711,23836,14199.35
712,23840,14219.32
713,23848,14239.29
714,23856,14259.26
715,23864,14279.23
716,23868,14299.20
717,23880,14319.17
718,23880,14339.14
719,23880,14359.11
720,23856,14379.08
721,23820,14399.06
722,23776,14419.03
723,23740,14439.00
724,23712,14458.97
725,23696,14478.94
726,23692,14498.91
727,23688,14518.88
728,23696,14538.85
729,23700,14558.82
730,23712,14578.79
731,23720,14598.76
732,23724,14618.74
733,23724,14638.71
734,23724,14658.68
735,23720,14678.65
736,23720,14698.62
737,23724,14718.59
738,23728,14738.56
739,23736,14758.53
740,23744,14778.50
741,23752,14798.47
742,23760,14818.45
743,23768,14838.42
744,23776,14858.39
745,23784,14878.36
746,23792,14898.33
747,23800,14918.30
748,23808,14938.27
749,23820,14958.24
750,23824,14978.21
751,23832,14998.18
752,23844,15018.15
753,23832,15038.13
754,23800,15058.10
755,23756,15078.07
756,23704,15098.04
757,23648,15118.01
758,23612,15137.98
759,23592,15157.95
760,23580,15177.92
761,23572,15197.89
762,23572,15217.86
763,23572,15237.84
764,23580,15257.81
765,23588,15277.78
766,23596,15297.75
767,23600,15317.72
768,23600,15337.69
769,23600,15357.66
770,23596,15377.63
771,23600,15397.60
772,23604,15417.57
773,23608,15437.54
774,23620,15457.52
775,23628,15477.49
776,23640,15497.46
777,23652,15517.43
778,23664,15537.40
779,23668,15557.37
780,23680,15577.34
781,23692,15597.31
782,23704,15617.28
783,23720,15637.25
784,23728,15657.23
785,23740,15677.20
786,23752,15697.17
787,23764,15717.14
788,23768,15737.11
789,23760,15757.08
790,23720,15777.05
791,23672,15797.02
792,23620,15816.99
793,23576,15836.96
794,23540,15856.93
795,23520,15876.91
796,23512,15896.88
797,23508,15916.85
798,23512,15936.82
799,23524,15956.79
800,23532,15976.76
801,23544,15996.73
802,23552,16016.70
803,23560,16036.67
804,23560,16056.64
805,23560,16076.61
806,23564,16096.59
807,23564,16116.56
808,23572,16136.53
809,23580,16156.50
810,23592,16176.47
811,23604,16196.44
812,23616,16216.41
813,23628,16236.38
814,23640,16256.35
815,23652,16276.32
816,23664,16296.30
817,23676,16316.27
818,23688,16336.24
819,23704,16356.21
820,23716,16376.18
821,23724,16396.15
822,23740,16416.12
823,23748,16436.09
824,23764,16456.06
825,23776,16476.03
826,23780,16496.00
827,23760,16515.98
828,23720,16535.95
829,23672,16555.92
830,23616,16575.89
831,23568,16595.86
832,23544,16615.83
833,23528,16635.80
834,23528,16655.77
835,23528,16675.74
836,23536,16695.71
837,23548,16715.69
838,23564,16735.66
839,23572,16755.63
840,23576,16775.60
841,23576,16795.57
842,23576,16815.54
843,23572,16835.51
844,23576,16855.48
845,23580,16875.45
846,23588,16895.42
847,23596,16915.39
848,23608,16935.37
849,23620,16955.34
850,23628,16975.31
851,23640,16995.28
852,23652,17015.25
853,23660,17035.22
854,23676,17055.19
855,23688,17075.16
856,23700,17095.13
857,23712,17115.10
858,23724,17135.08
859,23732,17155.05
860,23736,17175.02
861,23712,17194.99
862,23672,17214.96
863,23628,17234.93
864,23580,17254.90
865,23540,17274.87
866,23520,17294.84
867,23512,17314.81
868,23512,17334.78
869,23516,17354.76
870,23532,17374.73
871,23548,17394.70
872,23564,17414.67
873,23572,17434.64
874,23576,17454.61
875,23580,17474.58
876,23576,17494.55
877,23572,17514.52
878,23572,17534.49
879,23580,17554.47
880,23584,17574.44
881,23592,17594.41
882,23604,17614.38
883,23620,17634.35
884,23628,17654.32
885,23648,17674.29
886,23652,17694.26
887,23664,17714.23
888,23676,17734.20
889,23684,17754.17
890,23696,17774.15
891,23712,17794.12
892,23724,17814.09
893,23720,17834.06
894,23688,17854.03
895,23636,17874.00
896,23572,17893.97
897,23508,17913.94
898,23460,17933.91
899,23432,17953.88
900,23416,17973.86
901,23416,17993.83
902,23420,18013.80
903,23428,18033.77
904,23440,18053.74
905,23456,18073.71
906,23460,18093.68
907,23464,18113.65
908,23468,18133.62
909,23464,18153.59
910,23468,18173.56
911,23468,18193.54
912,23472,18213.51
913,23484,18233.48
914,23492,18253.45
915,23504,18273.42
916,23516,18293.39
917,23536,18313.36
918,23548,18333.33
919,23564,18353.30
920,23576,18373.27
921,23592,18393.25
922,23604,18413.22
923,23616,18433.19
924,23628,18453.16
925,23640,18473.13
926,23656,18493.10
927,23668,18513.07
928,23660,18533.04
929,23620,18553.01
930,23556,18572.98
931,23484,18592.95
932,23408,18612.93
933,23348,18632.90
934,23312,18652.87
935,23292,18672.84
936,23284,18692.81
937,23284,18712.78
938,23292,18732.75
939,23308,18752.72
940,23316,18772.69
941,23324,18792.66
942,23328,18812.64
943,23328,18832.61
944,23328,18852.58
945,23328,18872.55
946,23332,18892.52
947,23336,18912.49
948,23340,18932.46
949,23352,18952.43
950,23364,18972.40
951,23384,18992.37
952,23400,19012.34
953,23416,19032.32
954,23436,19052.29
955,23448,19072.26
956,23464,19092.23
957,23480,19112.20
958,23492,19132.17
959,23504,19152.14
960,23516,19172.11
961,23532,19192.08
962,23552,19212.05
963,23556,19232.03
964,23540,19252.00
965,23492,19271.97
966,23424,19291.94
967,23344,19311.91
968,23280,19331.88
969,23228,19351.85
970,23200,19371.82
971,23192,19391.79
972,23192,19411.76
973,23200,19431.73
974,23220,19451.71
975,23232,19471.68
976,23244,19491.65
977,23256,19511.62
978,23260,19531.59
979,23264,19551.56
980,23264,19571.53
981,23264,19591.50
982,23268,19611.47
983,23272,19631.44
984,23284,19651.42
985,23296,19671.39
986,23312,19691.36
987,23332,19711.33
988,23356,19731.30
989,23368,19751.27
990,23384,19771.24
991,23404,19791.21
992,23420,19811.18
993,23436,19831.15
994,23448,19851.12
995,23460,19871.10
996,23476,19891.07
997,23492,19911.04
998,23512,19931.01
999,23532,19950.98
1000,23520,19970.95
1001,23492,19990.92
1002,23432,20010.89
1003,23360,20030.86
1004,23288,20050.83
1005,23232,20070.81
1006,23196,20090.78
1007,23184,20110.75
1008,23184,20130.72
1009,23188,20150.69
1010,23212,20170.66
1011,23232,20190.63
1012,23244,20210.60
1013,23260,20230.57
1014,23268,20250.54
1015,23272,20270.51
1016,23268,20290.49
1017,23264,20310.46
1018,23268,20330.43
1019,23272,20350.40
1020,23280,20370.37
1021,23292,20390.34
1022,23308,20410.31
1023,23324,20430.28
1024,23344,20450.25
1025,23360,20470.22
1026,23372,20490.19
1027,23384,20510.17
1028,23400,20530.14
1029,23412,20550.11
1030,23428,20570.08
1031,23444,20590.05
1032,23464,20610.02
1033,23476,20629.99
1034,23468,20649.96
1035,23440,20669.93
1036,23384,20689.90
1037,23312,20709.88
1038,23244,20729.85
1039,23196,20749.82
1040,23168,20769.79
1041,23160,20789.76
1042,23164,20809.73
1043,23180,20829.70
1044,23204,20849.67
1045,23224,20869.64
1046,23244,20889.61
1047,23256,20909.58
1048,23264,20929.56
1049,23260,20949.53
1050,23260,20969.50
1051,23256,20989.47
1052,23260,21009.44
1053,23260,21029.41
1054,23264,21049.38
1055,23276,21069.35
1056,23296,21089.32
1057,23312,21109.29
1058,23328,21129.27
1059,23344,21149.24
1060,23360,21169.21
1061,23376,21189.18
1062,23392,21209.15
1063,23408,21229.12
1064,23420,21249.09
1065,23436,21269.06
1066,23452,21289.03
1067,23440,21309.00
1068,23392,21328.97
1069,23316,21348.95
1070,23228,21368.92
1071,23144,21388.89
1072,23076,21408.86
1073,23044,21428.83
1074,23032,21448.80
1075,23036,21468.77
1076,23048,21488.74
1077,23064,21508.71
1078,23088,21528.68
1079,23104,21548.66
1080,23116,21568.63
1081,23124,21588.60
1082,23124,21608.57
1083,23124,21628.54
1084,23124,21648.51
1085,23128,21668.48
1086,23136,21688.45
1087,23148,21708.42
1088,23160,21728.39
1089,23180,21748.36
1090,23200,21768.34
1091,23220,21788.31
1092,23240,21808.28
1093,23260,21828.25
1094,23280,21848.22
1095,23296,21868.19
1096,23312,21888.16
1097,23328,21908.13
1098,23348,21928.10
1099,23368,21948.07
1100,23364,21968.05
1101,23332,21988.02
1102,23264,22007.99
1103,23176,22027.96
1104,23076,22047.93
1105,23000,22067.90
1106,22948,22087.87
1107,22924,22107.84
1108,22924,22127.81
1109,22936,22147.78
1110,22952,22167.75
1111,22972,22187.73
1112,22996,22207.70
1113,23012,22227.67
1114,23024,22247.64
1115,23028,22267.61
1116,23032,22287.58
1117,23036,22307.55
1118,23040,22327.52
1119,23052,22347.49
1120,23068,22367.46
1121,23084,22387.44
1122,23100,22407.41
1123,23116,22427.38
1124,23144,22447.35
1125,23164,22467.32
1126,23188,22487.29
1127,23208,22507.26
1128,23224,22527.23
1129,23248,22547.20
1130,23264,22567.17
1131,23280,22587.14
1132,23300,22607.12
1133,23316,22627.09
1134,23316,22647.06
1135,23280,22667.03
1136,23208,22687.00
1137,23112,22706.97
1138,23016,22726.94
1139,22948,22746.91
1140,22904,22766.88
1141,22888,22786.85
1142,22892,22806.83
1143,22908,22826.80
1144,22932,22846.77
1145,22960,22866.74
1146,22988,22886.71
1147,23004,22906.68
1148,23016,22926.65
1149,23024,22946.62
1150,23016,22966.59
1151,23016,22986.56
1152,23020,23006.53
1153,23032,23026.51
1154,23044,23046.48
1155,23060,23066.45
1156,23076,23086.42
1157,23096,23106.39
1158,23120,23126.36
1159,23140,23146.33
1160,23164,23166.30
1161,23184,23186.27
1162,23204,23206.24
1163,23224,23226.22
1164,23244,23246.19
1165,23264,23266.16
1166,23276,23286.13
1167,23256,23306.10
1168,23204,23326.07
1169,23120,23346.04
1170,23028,23366.01
1171,22952,23385.98
1172,22896,23405.95
1173,22872,23425.92
1174,22868,23445.90
1175,22880,23465.87
1176,22900,23485.84
1177,22932,23505.81
1178,22964,23525.78
1179,22988,23545.75
1180,23000,23565.72
1181,23004,23585.69
1182,23000,23605.66
1183,22996,23625.63
1184,22996,23645.61
1185,23004,23665.58
1186,23012,23685.55
1187,23028,23705.52
1188,23044,23725.49
1189,23056,23745.46
1190,23080,23765.43
1191,23100,23785.40
1192,23116,23805.37
1193,23136,23825.34
1194,23156,23845.31
1195,23180,23865.29
1196,23200,23885.26
1197,23208,23905.23
1198,23184,23925.20
1199,23124,23945.17
1200,23036,23965.14
1201,22940,23985.11
1202,22860,24005.08
1203,22804,24025.05
1204,22784,24045.02
1205,22784,24065.00
1206,22796,24084.97
1207,22816,24104.94
1208,22848,24124.91
1209,22880,24144.88
1210,22904,24164.85
1211,22920,24184.82
1212,22924,24204.79
1213,22920,24224.76
1214,22916,24244.73
1215,22912,24264.70
1216,22912,24284.68
1217,22924,24304.65
1218,22936,24324.62
1219,22948,24344.59
1220,22964,24364.56
1221,22984,24384.53
1222,23004,24404.50
1223,23028,24424.47
1224,23048,24444.44
1225,23068,24464.41
1226,23092,24484.39
1227,23108,24504.36
1228,23092,24524.33
1229,23028,24544.30
1230,22924,24564.27
1231,22812,24584.24
1232,22720,24604.21
1233,22652,24624.18
1234,22624,24644.15
1235,22624,24664.12
1236,22640,24684.09
1237,22660,24704.07
1238,22692,24724.04
1239,22724,24744.01
1240,22744,24763.98
1241,22760,24783.95
1242,22764,24803.92
1243,22764,24823.89
1244,22760,24843.86
1245,22768,24863.83
1246,22776,24883.80
1247,22792,24903.77
1248,22808,24923.75
1249,22828,24943.72
1250,22852,24963.69
1251,22876,24983.66
1252,22900,25003.63
1253,22920,25023.60
1254,22940,25043.57
1255,22964,25063.54
1256,22992,25083.51
1257,23008,25103.48
1258,22976,25123.46
1259,22892,25143.43
1260,22788,25163.40
1261,22680,25183.37
1262,22596,25203.34
1263,22548,25223.31
1264,22528,25243.28
1265,22532,25263.25
1266,22544,25283.22
1267,22560,25303.19
1268,22584,25323.16
1269,22604,25343.14
1270,22628,25363.11
1271,22648,25383.08
1272,22652,25403.05
1273,22660,25423.02
1274,22656,25442.99
1275,22664,25462.96
1276,22672,25482.93
1277,22688,25502.90
1278,22700,25522.87
1279,22712,25542.85
1280,22732,25562.82
1281,22760,25582.79
1282,22788,25602.76
1283,22808,25622.73
1284,22836,25642.70
1285,22860,25662.67
1286,22880,25682.64
1287,22880,25702.61
1288,22828,25722.58
1289,22736,25742.55
1290,22632,25762.53
1291,22540,25782.50
1292,22480,25802.47
1293,22452,25822.44
1294,22452,25842.41
1295,22460,25862.38
1296,22484,25882.35
1297,22508,25902.32
1298,22536,25922.29
1299,22572,25942.26
1300,22600,25962.24
1301,22620,25982.21
1302,22624,26002.18
1303,22620,26022.15
1304,22624,26042.12
1305,22636,26062.09
1306,22656,26082.06
1307,22672,26102.03
1308,22688,26122.00
1309,22704,26141.97
1310,22728,26161.94
1311,22748,26181.92
1312,22768,26201.89
1313,22792,26221.86
1314,22820,26241.83
1315,22836,26261.80
1316,22820,26281.77
1317,22756,26301.74
1318,22680,26321.71
1319,22592,26341.68
1320,22528,26361.65
1321,22492,26381.63
1322,22492,26401.60
1323,22512,26421.57
1324,22544,26441.54
1325,22584,26461.51
1326,22628,26481.48
1327,22668,26501.45
1328,22700,26521.42
1329,22720,26541.39
1330,22728,26561.36
1331,22736,26581.33
1332,22740,26601.31
1333,22744,26621.28
1334,22756,26641.25
1335,22768,26661.22
1336,22788,26681.19
1337,22812,26701.16
1338,22836,26721.13
1339,22864,26741.10
1340,22884,26761.07
1341,22912,26781.04
1342,22940,26801.02
1343,22956,26820.99
1344,22940,26840.96
1345,22868,26860.93
1346,22768,26880.90
1347,22672,26900.87
1348,22592,26920.84
1349,22544,26940.81
1350,22532,26960.78
1351,22536,26980.75
1352,22560,27000.72
1353,22600,27020.70
1354,22640,27040.67
1355,22676,27060.64
1356,22708,27080.61
1357,22736,27100.58
1358,22748,27120.55
1359,22752,27140.52
1360,22756,27160.49
1361,22764,27180.46
1362,22772,27200.43
1363,22788,27220.41
1364,22808,27240.38
1365,22832,27260.35
1366,22856,27280.32
1367,22888,27300.29
1368,22908,27320.26
1369,22936,27340.23
1370,22964,27360.20
1371,22972,27380.17
1372,22928,27400.14
1373,22840,27420.11
1374,22748,27440.09
1375,22668,27460.06
1376,22608,27480.03
1377,22572,27500.00
1378,22556,27519.97
1379,22556,27539.94
1380,22568,27559.91
1381,22596,27579.88
1382,22628,27599.85
1383,22660,27619.82
1384,22676,27639.80
1385,22688,27659.77
1386,22692,27679.74
1387,22684,27699.71
1388,22688,27719.68
1389,22692,27739.65
1390,22704,27759.62
1391,22720,27779.59
1392,22740,27799.56
1393,22764,27819.53
1394,22792,27839.50
1395,22816,27859.48
1396,22844,27879.45
1397,22872,27899.42
1398,22888,27919.39
1399,22852,27939.36
1400,22764,27959.33
1401,22656,27979.30
1402,22556,27999.27
1403,22472,28019.24
1404,22432,28039.21
1405,22416,28059.19
1406,22424,28079.16
1407,22448,28099.13
1408,22488,28119.10
1409,22528,28139.07
1410,22564,28159.04
1411,22592,28179.01
1412,22612,28198.98
1413,22616,28218.95
1414,22620,28238.92
1415,22624,28258.89
1416,22632,28278.87
1417,22640,28298.84
1418,22656,28318.81
1419,22672,28338.78
1420,22692,28358.75
1421,22716,28378.72
1422,22748,28398.69
1423,22772,28418.66
1424,22804,28438.63
1425,22832,28458.60
1426,22852,28478.58
1427,22828,28498.55
1428,22740,28518.52
1429,22620,28538.49
1430,22500,28558.46
1431,22404,28578.43
1432,22348,28598.40
1433,22332,28618.37
1434,22340,28638.34
1435,22360,28658.31
1436,22384,28678.28
1437,22420,28698.26
1438,22460,28718.23
1439,22492,28738.20
1440,22520,28758.17
1441,22536,28778.14
1442,22548,28798.11
1443,22552,28818.08
1444,22560,28838.05
1445,22568,28858.02
1446,22580,28877.99
1447,22600,28897.97
1448,22620,28917.94
1449,22648,28937.91
1450,22676,28957.88
1451,22708,28977.85
1452,22732,28997.82
1453,22760,29017.79
1454,22780,29037.76
1455,22812,29057.73
1456,22836,29077.70
1457,22860,29097.67
1458,22884,29117.65
1459,22908,29137.62
1460,22936,29157.59
1461,22960,29177.56
1462,22984,29197.53
1463,22992,29217.50
1464,22936,29237.47
1465,22808,29257.44
1466,22648,29277.41
1467,22496,29297.38
1468,22388,29317.35
1469,22332,29337.33
1470,22316,29357.30
1471,22316,29377.27
1472,22328,29397.24
1473,22348,29417.21
1474,22376,29437.18
1475,22408,29457.15
1476,22440,29477.12
1477,22468,29497.09
1478,22488,29517.06
1479,22500,29537.04
1480,22508,29557.01
1481,22516,29576.98
1482,22524,29596.95
1483,22536,29616.92
1484,22556,29636.89
1485,22584,29656.86
1486,22612,29676.83
1487,22640,29696.80
1488,22672,29716.77
1489,22704,29736.74
1490,22736,29756.72
1491,22760,29776.69
1492,22800,29796.66
1493,22828,29816.63
1494,22856,29836.60
1495,22880,29856.57
1496,22912,29876.54
1497,22940,29896.51
1498,22964,29916.48
1499,22992,29936.45
1500,23016,29956.43
1501,23012,29976.40
1502,22940,29996.37
1503,22808,30016.34
1504,22664,30036.31
1505,22532,30056.28
1506,22440,30076.25
1507,22396,30096.22
1508,22384,30116.19
1509,22400,30136.16
1510,22424,30156.13
1511,22456,30176.11
1512,22492,30196.08
1513,22528,30216.05
1514,22564,30236.02
1515,22588,30255.99
1516,22596,30275.96
1517,22600,30295.93
1518,22600,30315.90
1519,22608,30335.87
1520,22616,30355.84
1521,22632,30375.82
1522,22652,30395.79
1523,22672,30415.76
1524,22700,30435.73
1525,22736,30455.70
1526,22772,30475.67
1527,22796,30495.64
1528,22824,30515.61
1529,22860,30535.58
1530,22888,30555.55
1531,22920,30575.52
1532,22944,30595.50
1533,22972,30615.47
1534,22996,30635.44
1535,23024,30655.41
1536,23052,30675.38
1537,23072,30695.35
1538,23052,30715.32
1539,22964,30735.29
1540,22832,30755.26
1541,22688,30775.23
1542,22568,30795.21
1543,22484,30815.18
1544,22452,30835.15
1545,22452,30855.12
1546,22464,30875.09
1547,22492,30895.06
1548,22528,30915.03
1549,22568,30935.00
1550,22604,30954.97
1551,22628,30974.94
1552,22640,30994.91
1553,22648,31014.89
1554,22644,31034.86
1555,22640,31054.83
1556,22644,31074.80
1557,22648,31094.77
1558,22664,31114.74
1559,22680,31134.71
1560,22704,31154.68
1561,22732,31174.65
1562,22760,31194.62
1563,22796,31214.60
1564,22820,31234.57
1565,22848,31254.54
1566,22880,31274.51
1567,22900,31294.48
1568,22924,31314.45
1569,22948,31334.42
1570,22976,31354.39
1571,23004,31374.36
1572,23024,31394.33
1573,22996,31414.30
1574,22908,31434.28
1575,22776,31454.25
1576,22624,31474.22
1577,22504,31494.19
1578,22428,31514.16
1579,22396,31534.13
1580,22396,31554.10
1581,22412,31574.07
1582,22444,31594.04
1583,22480,31614.01
1584,22524,31633.99
1585,22560,31653.96
1586,22584,31673.93
1587,22592,31693.90
1588,22600,31713.87
1589,22600,31733.84
1590,22600,31753.81
1591,22604,31773.78
1592,22612,31793.75
1593,22636,31813.72
1594,22660,31833.69
1595,22688,31853.67
1596,22720,31873.64
1597,22752,31893.61
1598,22784,31913.58
1599,22816,31933.55
1600,22844,31953.52
1601,22868,31973.49
1602,22892,31993.46
1603,22916,32013.43
1604,22944,32033.40
1605,22972,32053.38
1606,23004,32073.35
1607,23028,32093.32
1608,23048,32113.29
1609,23012,32133.26
1610,22908,32153.23
1611,22756,32173.20
1612,22604,32193.17
1613,22488,32213.14
1614,22416,32233.11
1615,22380,32253.08
1616,22376,32273.06
1617,22392,32293.03
1618,22420,32313.00
1619,22456,32332.97
1620,22488,32352.94
1621,22520,32372.91
1622,22548,32392.88
1623,22568,32412.85
1624,22580,32432.82
1625,22576,32452.79
1626,22580,32472.77
1627,22584,32492.74
1628,22596,32512.71
1629,22616,32532.68
1630,22632,32552.65
1631,22660,32572.62
1632,22692,32592.59
1633,22724,32612.56
1634,22756,32632.53
1635,22788,32652.50
1636,22816,32672.47
1637,22848,32692.45
1638,22880,32712.42
1639,22908,32732.39
1640,22940,32752.36
1641,22964,32772.33
1642,22996,32792.30
1643,23032,32812.27
1644,23044,32832.24
1645,23004,32852.21
1646,22896,32872.18
1647,22752,32892.16
1648,22616,32912.13
1649,22500,32932.10
1650,22436,32952.07
1651,22412,32972.04
1652,22416,32992.01
1653,22440,33011.98
1654,22468,33031.95
1655,22500,33051.92
1656,22544,33071.89
1657,22576,33091.86
1658,22604,33111.84
1659,22624,33131.81
1660,22636,33151.78
1661,22640,33171.75
1662,22644,33191.72
1663,22648,33211.69
1664,22664,33231.66
1665,22684,33251.63
1666,22712,33271.60
1667,22740,33291.57
1668,22772,33311.55
1669,22804,33331.52
1670,22840,33351.49
1671,22868,33371.46
1672,22904,33391.43
1673,22936,33411.40
1674,22968,33431.37
1675,23004,33451.34
1676,23032,33471.31
1677,23060,33491.28
1678,23092,33511.25
1679,23116,33531.23
1680,23140,33551.20
1681,23124,33571.17
1682,23036,33591.14
1683,22904,33611.11
1684,22764,33631.08
1685,22636,33651.05
1686,22544,33671.02
1687,22504,33690.99
1688,22500,33710.96
1689,22516,33730.93
1690,22544,33750.91
1691,22584,33770.88
1692,22632,33790.85
1693,22676,33810.82
1694,22704,33830.79
1695,22720,33850.76
1696,22720,33870.73
1697,22720,33890.70
1698,22716,33910.67
1699,22720,33930.64
1700,22732,33950.62
1701,22748,33970.59
1702,22768,33990.56
1703,22800,34010.53
1704,22828,34030.50
1705,22856,34050.47
1706,22884,34070.44
1707,22916,34090.41
1708,22944,34110.38
1709,22976,34130.35
1710,23008,34150.32
1711,23036,34170.30
1712,23064,34190.27
1713,23076,34210.24
1714,23036,34230.21
1715,22940,34250.18
1716,22812,34270.15
1717,22700,34290.12
1718,22612,34310.09
1719,22564,34330.06
1720,22548,34350.03
1721,22560,34370.01
1722,22588,34389.98
1723,22628,34409.95
1724,22676,34429.92
1725,22720,34449.89
1726,22756,34469.86
1727,22780,34489.83
1728,22780,34509.80
1729,22780,34529.77
1730,22772,34549.74
1731,22764,34569.71
1732,22772,34589.69
1733,22784,34609.66
1734,22800,34629.63
1735,22820,34649.60
1736,22848,34669.57
1737,22872,34689.54
1738,22896,34709.51
1739,22916,34729.48
1740,22944,34749.45
1741,22964,34769.42
1742,22988,34789.40
1743,22996,34809.37
1744,22956,34829.34
1745,22848,34849.31
1746,22720,34869.28
1747,22592,34889.25
1748,22496,34909.22
1749,22436,34929.19
1750,22416,34949.16
1751,22432,34969.13
1752,22468,34989.10
1753,22512,35009.08
1754,22552,35029.05
1755,22596,35049.02
1756,22624,35068.99
1757,22648,35088.96
1758,22652,35108.93
1759,22648,35128.90
1760,22636,35148.87
1761,22636,35168.84
1762,22648,35188.81
1763,22664,35208.79
1764,22684,35228.76
1765,22704,35248.73
1766,22732,35268.70
1767,22764,35288.67
1768,22788,35308.64
1769,22816,35328.61
1770,22848,35348.58
1771,22880,35368.55
1772,22916,35388.52
1773,22936,35408.49
1774,22904,35428.47
1775,22800,35448.44
1776,22660,35468.41
1777,22520,35488.38
1778,22408,35508.35
1779,22332,35528.32
1780,22308,35548.29
1781,22320,35568.26
1782,22344,35588.23
1783,22380,35608.20
1784,22412,35628.18
1785,22448,35648.15
1786,22484,35668.12
1787,22508,35688.09
1788,22524,35708.06
1789,22524,35728.03
1790,22520,35748.00
1791,22524,35767.97
1792,22528,35787.94
1793,22544,35807.91
1794,22556,35827.88
1795,22576,35847.86
1796,22604,35867.83
1797,22628,35887.80
1798,22652,35907.77
1799,22680,35927.74
1800,22708,35947.71
1801,22740,35967.68
1802,22768,35987.65
1803,22788,36007.62
1804,22788,36027.59
1805,22728,36047.57
1806,22608,36067.54
1807,22468,36087.51
1808,22352,36107.48
1809,22272,36127.45
1810,22240,36147.42
1811,22244,36167.39
1812,22268,36187.36
1813,22304,36207.33
1814,22344,36227.30
1815,22392,36247.27
1816,22436,36267.25
1817,22464,36287.22
1818,22480,36307.19
1819,22484,36327.16
1820,22484,36347.13
1821,22492,36367.10
1822,22500,36387.07
1823,22508,36407.04
1824,22528,36427.01
1825,22548,36446.98
1826,22576,36466.96
1827,22608,36486.93
1828,22636,36506.90
1829,22656,36526.87
1830,22684,36546.84
1831,22712,36566.81
1832,22744,36586.78
1833,22772,36606.75
1834,22800,36626.72
1835,22816,36646.69
1836,22780,36666.66
1837,22680,36686.64
1838,22544,36706.61
1839,22412,36726.58
1840,22316,36746.55
1841,22268,36766.52
1842,22260,36786.49
1843,22280,36806.46
1844,22316,36826.43
1845,22364,36846.40
1846,22412,36866.37
1847,22460,36886.35
1848,22492,36906.32
1849,22508,36926.29
1850,22512,36946.26
1851,22512,36966.23
1852,22516,36986.20
1853,22516,37006.17
1854,22516,37026.14
1855,22532,37046.11
1856,22556,37066.08
1857,22588,37086.05
1858,22612,37106.03
1859,22640,37126.00
1860,22668,37145.97
1861,22692,37165.94
1862,22720,37185.91
1863,22748,37205.88
1864,22768,37225.85
1865,22796,37245.82
1866,22816,37265.79
1867,22796,37285.76
1868,22712,37305.74
1869,22588,37325.71
1870,22460,37345.68
1871,22360,37365.65
1872,22304,37385.62
1873,22288,37405.59
1874,22308,37425.56
1875,22344,37445.53
1876,22388,37465.50
1877,22448,37485.47
1878,22496,37505.44
1879,22532,37525.42
1880,22544,37545.39
1881,22548,37565.36
1882,22544,37585.33
1883,22536,37605.30
1884,22536,37625.27
1885,22540,37645.24
1886,22556,37665.21
1887,22580,37685.18
1888,22604,37705.15
1889,22624,37725.13
1890,22656,37745.10
1891,22680,37765.07
1892,22708,37785.04
1893,22732,37805.01
1894,22760,37824.98
1895,22784,37844.95
1896,22808,37864.92
1897,22792,37884.89
1898,22712,37904.86
1899,22588,37924.83
1900,22460,37944.81
1901,22356,37964.78
1902,22292,37984.75
1903,22276,38004.72
1904,22284,38024.69
1905,22320,38044.66
1906,22356,38064.63
1907,22404,38084.60
1908,22448,38104.57
1909,22480,38124.54
1910,22496,38144.51
1911,22496,38164.49
1912,22492,38184.46
1913,22480,38204.43
1914,22472,38224.40
1915,22472,38244.37
1916,22488,38264.34
1917,22508,38284.31
1918,22528,38304.28
1919,22548,38324.25
1920,22580,38344.22
1921,22608,38364.20
1922,22640,38384.17
1923,22664,38404.14
1924,22688,38424.11
1925,22708,38444.08
1926,22732,38464.05
1927,22724,38484.02
1928,22644,38503.99
1929,22516,38523.96
1930,22364,38543.93
1931,22240,38563.90
1932,22168,38583.88
1933,22144,38603.85
1934,22152,38623.82
1935,22172,38643.79
1936,22204,38663.76
1937,22244,38683.73
1938,22280,38703.70
1939,22316,38723.67
1940,22340,38743.64
1941,22352,38763.61
1942,22348,38783.59
1943,22340,38803.56
1944,22344,38823.53
1945,22356,38843.50
1946,22368,38863.47
1947,22392,38883.44
1948,22416,38903.41
1949,22448,38923.38
1950,22480,38943.35
1951,22504,38963.32
1952,22536,38983.29
1953,22560,39003.27
1954,22584,39023.24
1955,22612,39043.21
1956,22640,39063.18
1957,22668,39083.15
1958,22688,39103.12
1959,22660,39123.09
1960,22560,39143.06
1961,22412,39163.03
1962,22264,39183.00
1963,22152,39202.98
1964,22092,39222.95
1965,22076,39242.92
1966,22088,39262.89
1967,22108,39282.86
1968,22140,39302.83
1969,22180,39322.80
1970,22208,39342.77
1971,22240,39362.74
1972,22256,39382.71
1973,22276,39402.68
1974,22284,39422.66
1975,22284,39442.63
1976,22280,39462.60
1977,22284,39482.57
1978,22308,39502.54
1979,22336,39522.51
1980,22360,39542.48
1981,22380,39562.45
1982,22404,39582.42
1983,22436,39602.39
1984,22472,39622.37
1985,22504,39642.34
1986,22524,39662.31
1987,22544,39682.28
1988,22576,39702.25
1989,22604,39722.22
1990,22632,39742.19
1991,22656,39762.16
1992,22664,39782.13
1993,22624,39802.10
1994,22516,39822.07
1995,22368,39842.05
1996,22224,39862.02
1997,22128,39881.99
1998,22088,39901.96
1999,22084,39921.93
2000,22108,39941.90
2001,22136,39961.87
2002,22164,39981.84
2003,22212,40001.81
2004,22256,40021.78
2005,22284,40041.76
2006,22296,40061.73
2007,22300,40081.70
2008,22304,40101.67
2009,22308,40121.64
2010,22308,40141.61
2011,22316,40161.58
2012,22336,40181.55
2013,22364,40201.52
2014,22392,40221.49
2015,22416,40241.46
2016,22436,40261.44
2017,22468,40281.41
2018,22500,40301.38
2019,22532,40321.35
2020,22560,40341.32
2021,22584,40361.29
2022,22608,40381.26
2023,22636,40401.23
2024,22660,40421.20
2025,22680,40441.17
2026,22704,40461.15
2027,22728,40481.12
2028,22752,40501.09
2029,22776,40521.06
2030,22768,40541.03
2031,22684,40561.00
2032,22544,40580.97
2033,22392,40600.94
2034,22272,40620.91
2035,22192,40640.88
2036,22156,40660.85
2037,22164,40680.83
2038,22196,40700.80
2039,22228,40720.77
2040,22272,40740.74
2041,22320,40760.71
2042,22356,40780.68
2043,22372,40800.65
2044,22372,40820.62
2045,22372,40840.59
2046,22368,40860.56
2047,22364,40880.54
2048,22364,40900.51
2049,22380,40920.48
2050,22396,40940.45
2051,22416,40960.42
2052,22448,40980.39
2053,22476,41000.36
2054,22504,41020.33
2055,22532,41040.30
2056,22568,41060.27
2057,22588,41080.24
2058,22612,41100.22
2059,22640,41120.19
2060,22660,41140.16
2061,22680,41160.13
2062,22696,41180.10
2063,22720,41200.07
2064,22744,41220.04
2065,22772,41240.01
2066,22760,41259.98
2067,22688,41279.95
2068,22568,41299.93
2069,22420,41319.90
2070,22300,41339.87
2071,22224,41359.84
2072,22192,41379.81
2073,22192,41399.78
2074,22220,41419.75
2075,22260,41439.72
2076,22308,41459.69
2077,22352,41479.66
2078,22388,41499.63
2079,22404,41519.61
2080,22412,41539.58
2081,22396,41559.55
2082,22380,41579.52
2083,22372,41599.49
2084,22376,41619.46
2085,22380,41639.43
2086,22400,41659.40
2087,22416,41679.37
2088,22444,41699.34
2089,22472,41719.32
2090,22508,41739.29
2091,22536,41759.26
2092,22560,41779.23
2093,22580,41799.20
2094,22612,41819.17
2095,22636,41839.14
2096,22664,41859.11
2097,22684,41879.08
2098,22704,41899.05
2099,22728,41919.02
2100,22756,41939.00
2101,22748,41958.97
2102,22672,41978.94
2103,22536,41998.91
2104,22388,42018.88
2105,22252,42038.85
2106,22156,42058.82
2107,22112,42078.79
2108,22116,42098.76
2109,22136,42118.73
2110,22176,42138.71
2111,22216,42158.68
2112,22256,42178.65
2113,22288,42198.62
2114,22316,42218.59
2115,22324,42238.56
2116,22332,42258.53
2117,22328,42278.50
2118,22328,42298.47
2119,22320,42318.44
2120,22332,42338.41
2121,22344,42358.39
2122,22364,42378.36
2123,22392,42398.33
2124,22428,42418.30
2125,22456,42438.27
2126,22480,42458.24
2127,22504,42478.21
2128,22536,42498.18
2129,22564,42518.15
2130,22596,42538.12
2131,22624,42558.09
2132,22648,42578.07
2133,22672,42598.04
2134,22700,42618.01
2135,22728,42637.98
2136,22736,42657.95
2137,22672,42677.92
2138,22552,42697.89
2139,22392,42717.86
2140,22244,42737.83
2141,22144,42757.80
2142,22100,42777.78
2143,22096,42797.75
2144,22120,42817.72
2145,22152,42837.69
2146,22188,42857.66
2147,22228,42877.63
2148,22268,42897.60
2149,22300,42917.57
2150,22324,42937.54
2151,22332,42957.51
2152,22332,42977.48
2153,22324,42997.46
2154,22336,43017.43
2155,22352,43037.40
2156,22372,43057.37
2157,22388,43077.34
2158,22416,43097.31
2159,22440,43117.28
2160,22472,43137.25
2161,22504,43157.22
2162,22536,43177.19
2163,22564,43197.17
2164,22588,43217.14
2165,22616,43237.11
2166,22648,43257.08
2167,22676,43277.05
2168,22700,43297.02
2169,22732,43316.99
2170,22760,43336.96
2171,22788,43356.93
2172,22756,43376.90
2173,22656,43396.87
2174,22512,43416.85
2175,22372,43436.82
2176,22264,43456.79
2177,22192,43476.76
2178,22176,43496.73
2179,22192,43516.70
2180,22224,43536.67
2181,22264,43556.64
2182,22312,43576.61
2183,22360,43596.58
2184,22392,43616.56
2185,22416,43636.53
2186,22424,43656.50
2187,22420,43676.47
2188,22408,43696.44
2189,22408,43716.41
2190,22420,43736.38
2191,22432,43756.35
2192,22452,43776.32
2193,22472,43796.29
2194,22500,43816.26
2195,22528,43836.24
2196,22564,43856.21
2197,22592,43876.18
2198,22612,43896.15
2199,22640,43916.12
2200,22672,43936.09
2201,22700,43956.06
2202,22720,43976.03
2203,22748,43996.00
2204,22776,44015.97
2205,22804,44035.95
2206,22804,44055.92
2207,22740,44075.89
2208,22624,44095.86
2209,22492,44115.83
2210,22376,44135.80
2211,22296,44155.77
2212,22260,44175.74
2213,22264,44195.71
2214,22292,44215.68
2215,22332,44235.65
2216,22384,44255.63
2217,22436,44275.60
2218,22476,44295.57
2219,22504,44315.54
2220,22520,44335.51
2221,22516,44355.48
2222,22504,44375.45
2223,22496,44395.42
2224,22496,44415.39
2225,22504,44435.36
2226,22512,44455.34
2227,22536,44475.31
2228,22560,44495.28
2229,22588,44515.25
2230,22620,44535.22
2231,22656,44555.19
2232,22680,44575.16
2233,22700,44595.13
2234,22720,44615.10
2235,22748,44635.07
2236,22772,44655.04
2237,22796,44675.02
2238,22812,44694.99
2239,22792,44714.96
2240,22712,44734.93
2241,22588,44754.90
2242,22452,44774.87
2243,22340,44794.84
2244,22272,44814.81
2245,22248,44834.78
2246,22260,44854.75
2247,22296,44874.73
2248,22340,44894.70
2249,22392,44914.67
2250,22440,44934.64
2251,22476,44954.61
2252,22496,44974.58
2253,22504,44994.55
2254,22504,45014.52
2255,22492,45034.49
2256,22484,45054.46
2257,22488,45074.43
2258,22496,45094.41
2259,22516,45114.38
2260,22540,45134.35
2261,22560,45154.32
2262,22580,45174.29
2263,22604,45194.26
2264,22636,45214.23
2265,22652,45234.20
2266,22668,45254.17
2267,22684,45274.14
2268,22704,45294.12
2269,22724,45314.09
2270,22736,45334.06
2271,22688,45354.03
2272,22576,45374.00
2273,22432,45393.97
2274,22300,45413.94
2275,22196,45433.91
2276,22140,45453.88
2277,22124,45473.85
2278,22140,45493.82
2279,22176,45513.80
2280,22220,45533.77
2281,22256,45553.74
2282,22292,45573.71
2283,22332,45593.68
2284,22356,45613.65
2285,22356,45633.62
2286,22352,45653.59
2287,22352,45673.56
2288,22360,45693.53
2289,22356,45713.51
2290,22372,45733.48
2291,22404,45753.45
2292,22432,45773.42
2293,22460,45793.39
2294,22492,45813.36
2295,22512,45833.33
2296,22544,45853.30
2297,22568,45873.27
2298,22600,45893.24
2299,22620,45913.21
2300,22640,45933.19
2301,22668,45953.16
2302,22692,45973.13
2303,22692,45993.10
2304,22612,46013.07
2305,22476,46033.04
2306,22320,46053.01
2307,22184,46072.98
2308,22100,46092.95
2309,22060,46112.92
2310,22064,46132.90
2311,22084,46152.87
2312,22116,46172.84
2313,22152,46192.81
2314,22192,46212.78
2315,22228,46232.75
2316,22256,46252.72
2317,22280,46272.69
2318,22288,46292.66
2319,22292,46312.63
2320,22292,46332.60
2321,22304,46352.58
2322,22316,46372.55
2323,22336,46392.52
2324,22364,46412.49
2325,22384,46432.46
2326,22416,46452.43
2327,22448,46472.40
2328,22476,46492.37
2329,22504,46512.34
2330,22532,46532.31
2331,22560,46552.29
2332,22592,46572.26
2333,22612,46592.23
2334,22632,46612.20
2335,22656,46632.17
2336,22668,46652.14
2337,22616,46672.11
2338,22492,46692.08
2339,22344,46712.05
2340,22208,46732.02
2341,22124,46751.99
2342,22088,46771.97
2343,22084,46791.94
2344,22100,46811.91
2345,22132,46831.88
2346,22168,46851.85
2347,22212,46871.82
2348,22252,46891.79
2349,22284,46911.76
2350,22304,46931.73
2351,22312,46951.70
2352,22316,46971.68
2353,22316,46991.65
2354,22328,47011.62
2355,22336,47031.59
2356,22356,47051.56
2357,22380,47071.53
2358,22408,47091.50
2359,22440,47111.47
2360,22468,47131.44
2361,22500,47151.41
2362,22528,47171.38
2363,22556,47191.36
2364,22576,47211.33
2365,22596,47231.30
2366,22620,47251.27
2367,22644,47271.24
2368,22676,47291.21
2369,22700,47311.18
2370,22720,47331.15
2371,22716,47351.12
2372,22656,47371.09
2373,22536,47391.06
2374,22396,47411.04
2375,22268,47431.01
2376,22180,47450.98
2377,22148,47470.95
2378,22152,47490.92
2379,22180,47510.89
2380,22220,47530.86
2381,22260,47550.83
2382,22304,47570.80
2383,22340,47590.77
2384,22364,47610.75
2385,22372,47630.72
2386,22368,47650.69
2387,22360,47670.66
2388,22356,47690.63
2389,22360,47710.60
2390,22376,47730.57
2391,22392,47750.54
2392,22416,47770.51
2393,22440,47790.48
2394,22472,47810.45
2395,22500,47830.43
2396,22528,47850.40
2397,22556,47870.37
2398,22576,47890.34
2399,22604,47910.31
2400,22628,47930.28
2401,22652,47950.25
2402,22672,47970.22
2403,22696,47990.19
2404,22700,48010.16
2405,22652,48030.14
2406,22544,48050.11
2407,22420,48070.08
2408,22300,48090.05
2409,22216,48110.02
2410,22184,48129.99
2411,22180,48149.96
2412,22200,48169.93
2413,22236,48189.90
2414,22280,48209.87
2415,22332,48229.84
2416,22368,48249.82
2417,22392,48269.79
2418,22396,48289.76
2419,22396,48309.73
2420,22380,48329.70
2421,22376,48349.67
2422,22372,48369.64
2423,22384,48389.61
2424,22400,48409.58
2425,22424,48429.55
2426,22456,48449.53
2427,22488,48469.50
2428,22516,48489.47
2429,22540,48509.44
2430,22568,48529.41
2431,22588,48549.38
2432,22612,48569.35
2433,22636,48589.32
2434,22660,48609.29
2435,22680,48629.26
2436,22692,48649.23
2437,22652,48669.21
2438,22544,48689.18
2439,22408,48709.15
2440,22272,48729.12
2441,22176,48749.09
2442,22128,48769.06
2443,22116,48789.03
2444,22136,48809.00
2445,22164,48828.97
2446,22208,48848.94
2447,22252,48868.92
2448,22284,48888.89
2449,22308,48908.86
2450,22320,48928.83
2451,22320,48948.80
2452,22316,48968.77
2453,22316,48988.74
2454,22312,49008.71
2455,22320,49028.68
2456,22336,49048.65
2457,22364,49068.62
2458,22388,49088.60
2459,22412,49108.57
2460,22440,49128.54
2461,22468,49148.51
2462,22496,49168.48
2463,22528,49188.45
2464,22552,49208.42
2465,22576,49228.39
2466,22600,49248.36
2467,22624,49268.33
2468,22648,49288.31
2469,22672,49308.28
2470,22664,49328.25
2471,22592,49348.22
2472,22456,49368.19
2473,22304,49388.16
2474,22176,49408.13
2475,22092,49428.10
2476,22052,49448.07
2477,22056,49468.04
2478,22076,49488.01
2479,22108,49507.99
2480,22144,49527.96
2481,22176,49547.93
2482,22212,49567.90
2483,22236,49587.87
2484,22256,49607.84
2485,22260,49627.81
2486,22264,49647.78
2487,22264,49667.75
2488,22264,49687.72
2489,22272,49707.70
2490,22292,49727.67
2491,22316,49747.64
2492,22344,49767.61
2493,22364,49787.58
2494,22396,49807.55
2495,22424,49827.52
2496,22452,49847.49
2497,22476,49867.46
2498,22496,49887.43
2499,22524,49907.40
2500,22552,49927.38
2501,22580,49947.35
2502,22600,49967.32
2503,22624,49987.29
2504,22644,50007.26
2505,22632,50027.23
2506,22548,50047.20
2507,22412,50067.17
2508,22260,50087.14
2509,22140,50107.11
2510,22076,50127.09
2511,22052,50147.06
2512,22060,50167.03
2513,22080,50187.00
2514,22108,50206.97
2515,22144,50226.94
2516,22180,50246.91
2517,22216,50266.88
2518,22240,50286.85
2519,22256,50306.82
2520,22268,50326.79
2521,22272,50346.77
2522,22272,50366.74
2523,22276,50386.71
2524,22288,50406.68
2525,22304,50426.65
2526,22324,50446.62
2527,22348,50466.59
2528,22376,50486.56
2529,22404,50506.53
2530,22432,50526.50
2531,22464,50546.48
2532,22488,50566.45
2533,22508,50586.42
2534,22536,50606.39
2535,22556,50626.36
2536,22584,50646.33
2537,22608,50666.30
2538,22628,50686.27
2539,22652,50706.24
2540,22676,50726.21
2541,22700,50746.18
2542,22724,50766.16
2543,22736,50786.13
2544,22688,50806.10
2545,22564,50826.07
2546,22416,50846.04
2547,22264,50866.01
2548,22164,50885.98
2549,22108,50905.95
2550,22100,50925.92
2551,22116,50945.89
2552,22144,50965.87
2553,22180,50985.84
2554,22224,51005.81
2555,22264,51025.78
2556,22288,51045.75
2557,22304,51065.72
2558,22312,51085.69
2559,22308,51105.66
2560,22300,51125.63
2561,22300,51145.60
2562,22312,51165.57
2563,22328,51185.55
2564,22340,51205.52
2565,22364,51225.49
2566,22396,51245.46
2567,22428,51265.43
2568,22452,51285.40
2569,22480,51305.37
2570,22504,51325.34
2571,22528,51345.31
2572,22556,51365.28
2573,22584,51385.26
2574,22604,51405.23
2575,22628,51425.20
2576,22652,51445.17
2577,22672,51465.14
2578,22692,51485.11
2579,22708,51505.08
2580,22732,51525.05
2581,22756,51545.02
2582,22784,51564.99
2583,22776,51584.96
2584,22708,51604.94
2585,22580,51624.91
2586,22436,51644.88
2587,22304,51664.85
2588,22216,51684.82
2589,22176,51704.79
2590,22180,51724.76
2591,22204,51744.73
2592,22244,51764.70
2593,22292,51784.67
2594,22332,51804.64
2595,22368,51824.62
2596,22388,51844.59
2597,22396,51864.56
2598,22384,51884.53
2599,22372,51904.50
2600,22368,51924.47
2601,22372,51944.44
2602,22376,51964.41
2603,22396,51984.38
2604,22420,52004.35
2605,22444,52024.33
2606,22464,52044.30
2607,22500,52064.27
2608,22528,52084.24
2609,22560,52104.21
2610,22592,52124.18
2611,22616,52144.15
2612,22640,52164.12
2613,22664,52184.09
2614,22684,52204.06
2615,22700,52224.03
2616,22724,52244.01
2617,22744,52263.98
2618,22768,52283.95
2619,22788,52303.92
2620,22788,52323.89
2621,22728,52343.86
2622,22608,52363.83
2623,22460,52383.80
2624,22336,52403.77
2625,22248,52423.74
2626,22208,52443.72
2627,22208,52463.69
2628,22224,52483.66
2629,22256,52503.63
2630,22304,52523.60
2631,22352,52543.57
2632,22392,52563.54
2633,22420,52583.51
2634,22424,52603.48
2635,22412,52623.45
2636,22400,52643.42
2637,22396,52663.40
2638,22392,52683.37
2639,22396,52703.34
2640,22412,52723.31
2641,22432,52743.28
2642,22448,52763.25
2643,22476,52783.22
2644,22504,52803.19
2645,22528,52823.16
2646,22552,52843.13
2647,22576,52863.11
2648,22596,52883.08
2649,22616,52903.05
2650,22636,52923.02
2651,22652,52942.99
2652,22676,52962.96
2653,22700,52982.93
2654,22720,53002.90
2655,22696,53022.87
2656,22600,53042.84
2657,22464,53062.81
2658,22320,53082.79
2659,22200,53102.76
2660,22128,53122.73
2661,22100,53142.70
2662,22108,53162.67
2663,22136,53182.64
2664,22176,53202.61
2665,22212,53222.58
2666,22256,53242.55
2667,22292,53262.52
2668,22316,53282.50
2669,22328,53302.47
2670,22320,53322.44
2671,22312,53342.41
2672,22308,53362.38
2673,22308,53382.35
2674,22324,53402.32
2675,22344,53422.29
2676,22368,53442.26
2677,22392,53462.23
2678,22424,53482.20
2679,22452,53502.18
2680,22480,53522.15
2681,22504,53542.12
2682,22532,53562.09
2683,22560,53582.06
2684,22588,53602.03
2685,22612,53622.00
2686,22632,53641.97
2687,22656,53661.94
2688,22684,53681.91
2689,22696,53701.89
2690,22648,53721.86
2691,22532,53741.83
2692,22376,53761.80
2693,22228,53781.77
2694,22120,53801.74
2695,22064,53821.71
2696,22052,53841.68
2697,22060,53861.65
2698,22088,53881.62
2699,22120,53901.59
2700,22160,53921.57
2701,22196,53941.54
2702,22228,53961.51
2703,22248,53981.48
2704,22256,54001.45
2705,22260,54021.42
2706,22260,54041.39
2707,22256,54061.36
2708,22260,54081.33
2709,22268,54101.30
2710,22292,54121.28
2711,22320,54141.25
2712,22344,54161.22
2713,22368,54181.19
2714,22404,54201.16
2715,22432,54221.13
2716,22456,54241.10
2717,22476,54261.07
2718,22500,54281.04
2719,22524,54301.01
2720,22548,54320.98
2721,22576,54340.96
2722,22600,54360.93
2723,22620,54380.90
2724,22600,54400.87
2725,22508,54420.84
2726,22368,54440.81
2727,22224,54460.78
2728,22112,54480.75
2729,22048,54500.72
2730,22032,54520.69
2731,22040,54540.67
2732,22064,54560.64
2733,22100,54580.61
2734,22140,54600.58
2735,22184,54620.55
2736,22216,54640.52
2737,22236,54660.49
2738,22248,54680.46
2739,22248,54700.43
2740,22252,54720.40
2741,22248,54740.37
2742,22248,54760.35
2743,22260,54780.32
2744,22284,54800.29
2745,22304,54820.26
2746,22328,54840.23
2747,22348,54860.20
2748,22380,54880.17
2749,22408,54900.14
2750,22432,54920.11
2751,22452,54940.08
2752,22476,54960.06
2753,22496,54980.03
2754,22516,55000.00
2755,22532,55019.97
2756,22560,55039.94
2757,22580,55059.91
2758,22600,55079.88
2759,22580,55099.85
2760,22492,55119.82
2761,22360,55139.79
2762,22220,55159.76
2763,22112,55179.74
2764,22048,55199.71
2765,22028,55219.68
2766,22044,55239.65
2767,22080,55259.62
2768,22120,55279.59
2769,22168,55299.56
2770,22212,55319.53
2771,22240,55339.50
2772,22256,55359.47
2773,22260,55379.45
2774,22252,55399.42
2775,22240,55419.39
2776,22236,55439.36
2777,22248,55459.33
2778,22260,55479.30
2779,22276,55499.27
2780,22304,55519.24
2781,22324,55539.21
2782,22352,55559.18
2783,22380,55579.15
2784,22404,55599.13
2785,22424,55619.10
2786,22440,55639.07
2787,22464,55659.04
2788,22480,55679.01
2789,22504,55698.98
2790,22520,55718.95
2791,22540,55738.92
2792,22548,55758.89
2793,22508,55778.86
2794,22404,55798.84
2795,22272,55818.81
2796,22152,55838.78
2797,22064,55858.75
2798,22024,55878.72
2799,22012,55898.69
2800,22036,55918.66
2801,22072,55938.63
2802,22116,55958.60
2803,22164,55978.57
2804,22204,55998.54
2805,22228,56018.52
2806,22240,56038.49
2807,22236,56058.46
2808,22232,56078.43
2809,22224,56098.40
2810,22220,56118.37
2811,22228,56138.34
2812,22244,56158.31
2813,22264,56178.28
2814,22292,56198.25
2815,22324,56218.22
2816,22352,56238.20
2817,22372,56258.17
2818,22396,56278.14
2819,22420,56298.11
2820,22436,56318.08
2821,22452,56338.05
2822,22468,56358.02
2823,22480,56377.99
2824,22488,56397.96
2825,22504,56417.93
2826,22504,56437.91
2827,22440,56457.88
2828,22312,56477.85
2829,22164,56497.82
2830,22040,56517.79
2831,21956,56537.76
2832,21920,56557.73
2833,21916,56577.70
2834,21944,56597.67
2835,21980,56617.64
2836,22016,56637.61
2837,22056,56657.59
2838,22088,56677.56
2839,22116,56697.53
2840,22132,56717.50
2841,22132,56737.47
2842,22128,56757.44
2843,22128,56777.41
2844,22132,56797.38
2845,22140,56817.35
2846,22164,56837.32
2847,22188,56857.30
2848,22220,56877.27
2849,22252,56897.24
2850,22280,56917.21
2851,22304,56937.18
2852,22328,56957.15
2853,22352,56977.12
2854,22376,56997.09
2855,22404,57017.06
2856,22432,57037.03
2857,22448,57057.00
2858,22464,57076.98
2859,22484,57096.95
2860,22504,57116.92
2861,22524,57136.89
2862,22528,57156.86
2863,22472,57176.83
2864,22344,57196.80
2865,22184,57216.77
2866,22040,57236.74
2867,21936,57256.71
2868,21888,57276.69
2869,21872,57296.66
2870,21896,57316.63
2871,21912,57336.60
2872,21936,57356.57
2873,21972,57376.54
2874,22004,57396.51
2875,22028,57416.48
2876,22052,57436.45
2877,22068,57456.42
2878,22072,57476.39
2879,22072,57496.37
2880,22084,57516.34
2881,22092,57536.31
2882,22108,57556.28
2883,22136,57576.25
2884,22164,57596.22
2885,22192,57616.19
2886,22216,57636.16
2887,22248,57656.13
2888,22276,57676.10
2889,22304,57696.08
2890,22328,57716.05
2891,22356,57736.02
2892,22376,57755.99
2893,22396,57775.96
2894,22420,57795.93
2895,22440,57815.90
2896,22460,57835.87
2897,22476,57855.84
2898,22500,57875.81
2899,22512,57895.78
2900,22468,57915.76
2901,22360,57935.73
2902,22208,57955.70
2903,22064,57975.67
2904,21952,57995.64
2905,21896,58015.61
2906,21888,58035.58
2907,21900,58055.55
2908,21928,58075.52
2909,21956,58095.49
2910,21988,58115.47
2911,22024,58135.44
2912,22060,58155.41
2913,22084,58175.38
2914,22096,58195.35
2915,22096,58215.32
2916,22100,58235.29
2917,22108,58255.26
2918,22124,58275.23
2919,22140,58295.20
2920,22160,58315.17
2921,22184,58335.15
2922,22216,58355.12
2923,22244,58375.09
2924,22276,58395.06
2925,22300,58415.03
2926,22328,58435.00
2927,22360,58454.97
2928,22388,58474.94
2929,22408,58494.91
2930,22432,58514.88
2931,22452,58534.86
2932,22472,58554.83
2933,22488,58574.80
2934,22504,58594.77
2935,22520,58614.74
2936,22544,58634.71
2937,22564,58654.68
2938,22584,58674.65
2939,22600,58694.62
2940,22568,58714.59
2941,22464,58734.56
2942,22308,58754.54
2943,22156,58774.51
2944,22044,58794.48
2945,21972,58814.45
2946,21952,58834.42
2947,21976,58854.39
2948,22008,58874.36
2949,22040,58894.33
2950,22080,58914.30
2951,22116,58934.27
2952,22152,58954.25
2953,22172,58974.22
2954,22172,58994.19
2955,22168,59014.16
2956,22164,59034.13
2957,22164,59054.10
2958,22172,59074.07
2959,22184,59094.04
2960,22204,59114.01
2961,22232,59133.98
2962,22260,59153.95
2963,22288,59173.93
2964,22324,59193.90
2965,22356,59213.87
2966,22380,59233.84
2967,22396,59253.81
2968,22412,59273.78
2969,22436,59293.75
2970,22460,59313.72
2971,22476,59333.69
2972,22488,59353.66
2973,22504,59373.64
2974,22524,59393.61
2975,22544,59413.58
2976,22560,59433.55
2977,22580,59453.52
2978,22588,59473.49
2979,22548,59493.46
2980,22448,59513.43
2981,22308,59533.40
2982,22168,59553.37
2983,22068,59573.34
2984,22024,59593.32
2985,22012,59613.29
2986,22032,59633.26
2987,22068,59653.23
2988,22112,59673.20
2989,22164,59693.17
2990,22208,59713.14
2991,22232,59733.11
2992,22252,59753.08
2993,22248,59773.05
2994,22236,59793.03
2995,22232,59813.00
2996,22220,59832.97
2997,22228,59852.94
2998,22248,59872.91
2999,22268,59892.88
