Sample_Index,IR_Value,Timestamp_ms
0,21448,0.00
1,21592,19.98
2,21780,39.95
3,22040,59.93
4,22340,79.91
5,22708,99.89
6,23028,119.86
7,23264,139.84
8,23436,159.82
9,23572,179.80
10,23684,199.77
11,23772,219.75
12,23840,239.73
13,23888,259.70
14,23940,279.68
15,24000,299.66
16,24040,319.64
17,24060,339.61
18,24080,359.59
19,24088,379.57
20,24092,399.55
21,24104,419.52
22,24100,439.50
23,24092,459.48
24,24104,479.45
25,24120,499.43
26,24120,519.41
27,24120,539.39
28,24112,559.36
29,24104,579.34
30,24100,599.32
31,24100,619.30
32,24100,639.27
33,24096,659.25
34,24088,679.23
35,24076,699.20
36,24060,719.18
37,24032,739.16
38,24004,759.14
39,23980,779.11
40,23964,799.09
41,23952,819.07
42,23940,839.05
43,23928,859.02
44,23916,879.00
45,23912,898.98
46,23912,918.95
47,23908,938.93
48,23904,958.91
49,23888,978.89
50,23880,998.86
51,23864,1018.84
52,23852,1038.82
53,23840,1058.80
54,23836,1078.77
55,23836,1098.75
56,23824,1118.73
57,23816,1138.71
58,23820,1158.68
59,23816,1178.66
60,23812,1198.64
61,23808,1218.61
62,23804,1238.59
63,23804,1258.57
64,23804,1278.55
65,23800,1298.52
66,23800,1318.50
67,23800,1338.48
68,23796,1358.46
69,23796,1378.43
70,23788,1398.41
71,23784,1418.39
72,23768,1438.36
73,23744,1458.34
74,23704,1478.32
75,23668,1498.30
76,23640,1518.27
77,23612,1538.25
78,23596,1558.23
79,23588,1578.21
80,23572,1598.18
81,23564,1618.16
82,23564,1638.14
83,23564,1658.11
84,23564,1678.09
85,23560,1698.07
86,23560,1718.05
87,23556,1738.02
88,23544,1758.00
89,23532,1777.98
90,23520,1797.96
91,23512,1817.93
92,23504,1837.91
93,23508,1857.89
94,23504,1877.86
95,23504,1897.84
96,23500,1917.82
97,23492,1937.80
98,23492,1957.77
99,23496,1977.75
100,23500,1997.73
101,23500,2017.71
102,23504,2037.68
103,23504,2057.66
104,23504,2077.64
105,23512,2097.61
106,23516,2117.59
107,23516,2137.57
108,23508,2157.55
109,23500,2177.52
110,23472,2197.50
111,23432,2217.48
112,23408,2237.46
113,23384,2257.43
114,23368,2277.41
115,23360,2297.39
116,23352,2317.36
117,23344,2337.34
118,23336,2357.32
119,23328,2377.30
120,23324,2397.27
121,23320,2417.25
122,23320,2437.23
123,23316,2457.21
124,23312,2477.18
125,23304,2497.16
126,23300,2517.14
127,23292,2537.11
128,23288,2557.09
129,23288,2577.07
130,23284,2597.05
131,23284,2617.02
132,23284,2637.00
133,23284,2656.98
134,23288,2676.96
135,23288,2696.93
136,23292,2716.91
137,23296,2736.89
138,23296,2756.86
139,23300,2776.84
140,23304,2796.82
141,23308,2816.80
142,23312,2836.77
143,23312,2856.75
144,23308,2876.73
145,23288,2896.71
146,23260,2916.68
147,23212,2936.66
148,23168,2956.64
149,23128,2976.61
150,23100,2996.59
151,23080,3016.57
152,23068,3036.55
153,23056,3056.52
154,23056,3076.50
155,23052,3096.48
156,23052,3116.46
157,23052,3136.43
158,23052,3156.41
159,23048,3176.39
160,23040,3196.37
161,23028,3216.34
162,23024,3236.32
163,23016,3256.30
164,23012,3276.27
165,23008,3296.25
166,23012,3316.23
167,23020,3336.21
168,23028,3356.18
169,23036,3376.16
170,23044,3396.14
171,23052,3416.12
172,23056,3436.09
173,23064,3456.07
174,23076,3476.05
175,23076,3496.02
176,23076,3516.00
177,23084,3535.98
178,23088,3555.96
179,23092,3575.93
180,23100,3595.91
181,23092,3615.89
182,23068,3635.87
183,23028,3655.84
184,22980,3675.82
185,22936,3695.80
186,22908,3715.77
187,22884,3735.75
188,22864,3755.73
189,22852,3775.71
190,22840,3795.68
191,22828,3815.66
192,22820,3835.64
193,22824,3855.62
194,22816,3875.59
195,22812,3895.57
196,22804,3915.55
197,22784,3935.52
198,22764,3955.50
199,22748,3975.48
200,22728,3995.46
201,22668,4015.43
202,22620,4035.41
203,22580,4055.39
204,22536,4075.37
205,22496,4095.34
206,22456,4115.32
207,22408,4135.30
208,22384,4155.27
209,22360,4175.25
210,22320,4195.23
211,22284,4215.21
212,22260,4235.18
213,22240,4255.16
214,22216,4275.14
215,22188,4295.12
216,22156,4315.09
217,22136,4335.07
218,22132,4355.05
219,22136,4375.02
220,22148,4395.00
221,22160,4414.98
222,22160,4434.96
223,22160,4454.93
224,22160,4474.91
225,22176,4494.89
226,22208,4514.87
227,22240,4534.84
228,22272,4554.82
229,22296,4574.80
230,22312,4594.77
231,22340,4614.75
232,22368,4634.73
233,22384,4654.71
234,22400,4674.68
235,22412,4694.66
236,22428,4714.64
237,22428,4734.62
238,22436,4754.59
239,22444,4774.57
240,22452,4794.55
241,22456,4814.52
242,22468,4834.50
243,22480,4854.48
244,22492,4874.46
245,22500,4894.43
246,22508,4914.41
247,22520,4934.39
248,22536,4954.37
249,22548,4974.34
250,22556,4994.32
251,22564,5014.30
252,22572,5034.28
253,22580,5054.25
254,22596,5074.23
255,22604,5094.21
256,22616,5114.18
257,22628,5134.16
258,22640,5154.14
259,22652,5174.12
260,22664,5194.09
261,22676,5214.07
262,22688,5234.05
263,22700,5254.03
264,22708,5274.00
265,22716,5293.98
266,22720,5313.96
267,22708,5333.93
268,22680,5353.91
269,22652,5373.89
270,22624,5393.87
271,22604,5413.84
272,22592,5433.82
273,22584,5453.80
274,22580,5473.78
275,22576,5493.75
276,22572,5513.73
277,22572,5533.71
278,22572,5553.68
279,22580,5573.66
280,22580,5593.64
281,22584,5613.62
282,22584,5633.59
283,22588,5653.57
284,22592,5673.55
285,22588,5693.53
286,22588,5713.50
287,22592,5733.48
288,22596,5753.46
289,22604,5773.43
290,22612,5793.41
291,22620,5813.39
292,22624,5833.37
293,22632,5853.34
294,22640,5873.32
295,22648,5893.30
296,22652,5913.28
297,22656,5933.25
298,22668,5953.23
299,22672,5973.21
300,22680,5993.18
301,22688,6013.16
302,22700,6033.14
303,22704,6053.12
304,22716,6073.09
305,22724,6093.07
306,22732,6113.05
307,22736,6133.03
308,22732,6153.00
309,22720,6172.98
310,22696,6192.96
311,22672,6212.93
312,22648,6232.91
313,22636,6252.89
314,22620,6272.87
315,22620,6292.84
316,22616,6312.82
317,22620,6332.80
318,22616,6352.78
319,22620,6372.75
320,22616,6392.73
321,22616,6412.71
322,22620,6432.68
323,22632,6452.66
324,22632,6472.64
325,22640,6492.62
326,22648,6512.59
327,22648,6532.57
328,22656,6552.55
329,22664,6572.53
330,22676,6592.50
331,22688,6612.48
332,22696,6632.46
333,22712,6652.43
334,22720,6672.41
335,22732,6692.39
336,22744,6712.37
337,22760,6732.34
338,22768,6752.32
339,22784,6772.30
340,22792,6792.28
341,22808,6812.25
342,22820,6832.23
343,22824,6852.21
344,22836,6872.18
345,22848,6892.16
346,22864,6912.14
347,22876,6932.12
348,22884,6952.09
349,22896,6972.07
350,22904,6992.05
351,22916,7012.03
352,22932,7032.00
353,22944,7051.98
354,22948,7071.96
355,22944,7091.94
356,22928,7111.91
357,22908,7131.89
358,22884,7151.87
359,22860,7171.84
360,22848,7191.82
361,22844,7211.80
362,22836,7231.78
363,22832,7251.75
364,22824,7271.73
365,22824,7291.71
366,22820,7311.69
367,22820,7331.66
368,22828,7351.64
369,22828,7371.62
370,22828,7391.59
371,22824,7411.57
372,22824,7431.55
373,22828,7451.53
374,22832,7471.50
375,22836,7491.48
376,22840,7511.46
377,22844,7531.44
378,22848,7551.41
379,22856,7571.39
380,22864,7591.37
381,22876,7611.34
382,22880,7631.32
383,22892,7651.30
384,22900,7671.28
385,22904,7691.25
386,22912,7711.23
387,22920,7731.21
388,22924,7751.19
389,22932,7771.16
390,22940,7791.14
391,22948,7811.12
392,22956,7831.09
393,22960,7851.07
394,22976,7871.05
395,22984,7891.03
396,22992,7911.00
397,23000,7930.98
398,23004,7950.96
399,23008,7970.94
400,23020,7990.91
401,23028,8010.89
402,23036,8030.87
403,23044,8050.84
404,23040,8070.82
405,23028,8090.80
406,23008,8110.78
407,22984,8130.75
408,22952,8150.73
409,22932,8170.71
410,22920,8190.69
411,22916,8210.66
412,22904,8230.64
413,22904,8250.62
414,22896,8270.59
415,22896,8290.57
416,22892,8310.55
417,22892,8330.53
418,22896,8350.50
419,22896,8370.48
420,22896,8390.46
421,22892,8410.44
422,22892,8430.41
423,22892,8450.39
424,22900,8470.37
425,22900,8490.34
426,22904,8510.32
427,22912,8530.30
428,22920,8550.28
429,22928,8570.25
430,22936,8590.23
431,22940,8610.21
432,22948,8630.19
433,22960,8650.16
434,22964,8670.14
435,22968,8690.12
436,22980,8710.09
437,22984,8730.07
438,22992,8750.05
439,23000,8770.03
440,23008,8790.00
441,23016,8809.98
442,23020,8829.96
443,23024,8849.94
444,23032,8869.91
445,23040,8889.89
446,23048,8909.87
447,23048,8929.84
448,23048,8949.82
449,23048,8969.80
450,23056,8989.78
451,23068,9009.75
452,23076,9029.73
453,23080,9049.71
454,23084,9069.69
455,23084,9089.66
456,23060,9109.64
457,23036,9129.62
458,23004,9149.60
459,22972,9169.57
460,22944,9189.55
461,22924,9209.53
462,22904,9229.50
463,22888,9249.48
464,22880,9269.46
465,22864,9289.44
466,22852,9309.41
467,22836,9329.39
468,22816,9349.37
469,22796,9369.35
470,22772,9389.32
471,22744,9409.30
472,22720,9429.28
473,22688,9449.25
474,22664,9469.23
475,22636,9489.21
476,22600,9509.19
477,22588,9529.16
478,22576,9549.14
479,22560,9569.12
480,22548,9589.10
481,22540,9609.07
482,22536,9629.05
483,22528,9649.03
484,22520,9669.00
485,22516,9688.98
486,22508,9708.96
487,22508,9728.94
488,22500,9748.91
489,22492,9768.89
490,22484,9788.87
491,22476,9808.85
492,22468,9828.82
493,22460,9848.80
494,22448,9868.78
495,22440,9888.75
496,22432,9908.73
497,22428,9928.71
498,22428,9948.69
499,22436,9968.66
500,22440,9988.64
501,22440,10008.62
502,22448,10028.60
503,22452,10048.57
504,22436,10068.55
505,22416,10088.53
506,22384,10108.50
507,22348,10128.48
508,22308,10148.46
509,22272,10168.44
510,22244,10188.41
511,22224,10208.39
512,22208,10228.37
513,22196,10248.35
514,22188,10268.32
515,22176,10288.30
516,22168,10308.28
517,22164,10328.25
518,22164,10348.23
519,22164,10368.21
520,22168,10388.19
521,22164,10408.16
522,22156,10428.14
523,22144,10448.12
524,22140,10468.10
525,22140,10488.07
526,22140,10508.05
527,22144,10528.03
528,22148,10548.00
529,22148,10567.98
530,22152,10587.96
531,22156,10607.94
532,22160,10627.91
533,22164,10647.89
534,22168,10667.87
535,22168,10687.85
536,22168,10707.82
537,22172,10727.80
538,22176,10747.78
539,22176,10767.75
540,22180,10787.73
541,22184,10807.71
542,22192,10827.69
543,22200,10847.66
544,22208,10867.64
545,22212,10887.62
546,22200,10907.60
547,22176,10927.57
548,22132,10947.55
549,22080,10967.53
550,22032,10987.51
551,21996,11007.48
552,21972,11027.46
553,21964,11047.44
554,21956,11067.41
555,21948,11087.39
556,21944,11107.37
557,21944,11127.35
558,21944,11147.32
559,21948,11167.30
560,21952,11187.28
561,21956,11207.26
562,21952,11227.23
563,21952,11247.21
564,21952,11267.19
565,21956,11287.16
566,21960,11307.14
567,21968,11327.12
568,21976,11347.10
569,21984,11367.07
570,22000,11387.05
571,22012,11407.03
572,22020,11427.01
573,22032,11446.98
574,22048,11466.96
575,22056,11486.94
576,22072,11506.91
577,22088,11526.89
578,22096,11546.87
579,22104,11566.85
580,22116,11586.82
581,22128,11606.80
582,22136,11626.78
583,22148,11646.76
584,22156,11666.73
585,22168,11686.71
586,22184,11706.69
587,22200,11726.66
588,22200,11746.64
589,22176,11766.62
590,22136,11786.60
591,22088,11806.57
592,22036,11826.55
593,21992,11846.53
594,21964,11866.51
595,21952,11886.48
596,21944,11906.46
597,21940,11926.44
598,21936,11946.41
599,21936,11966.39
600,21932,11986.37
601,21936,12006.35
602,21936,12026.32
603,21932,12046.30
604,21928,12066.28
605,21920,12086.26
606,21916,12106.23
607,21912,12126.21
608,21912,12146.19
609,21916,12166.16
610,21924,12186.14
611,21932,12206.12
612,21948,12226.10
613,21956,12246.07
614,21968,12266.05
615,21980,12286.03
616,21988,12306.01
617,21996,12325.98
618,22004,12345.96
619,22008,12365.94
620,22020,12385.91
621,22032,12405.89
622,22040,12425.87
623,22052,12445.85
624,22060,12465.82
625,22076,12485.80
626,22084,12505.78
627,22088,12525.76
628,22076,12545.73
629,22044,12565.71
630,21988,12585.69
631,21932,12605.66
632,21880,12625.64
633,21840,12645.62
634,21824,12665.60
635,21816,12685.57
636,21808,12705.55
637,21796,12725.53
638,21792,12745.51
639,21788,12765.48
640,21784,12785.46
641,21788,12805.44
642,21796,12825.41
643,21800,12845.39
644,21804,12865.37
645,21808,12885.35
646,21812,12905.32
647,21816,12925.30
648,21820,12945.28
649,21828,12965.26
650,21832,12985.23
651,21848,13005.21
652,21860,13025.19
653,21872,13045.17
654,21888,13065.14
655,21900,13085.12
656,21912,13105.10
657,21924,13125.07
658,21940,13145.05
659,21956,13165.03
660,21968,13185.01
661,21980,13204.98
662,21992,13224.96
663,22000,13244.94
664,22012,13264.92
665,22024,13284.89
666,22040,13304.87
667,22056,13324.85
668,22072,13344.82
669,22084,13364.80
670,22100,13384.78
671,22112,13404.76
672,22124,13424.73
673,22116,13444.71
674,22084,13464.69
675,22032,13484.67
676,21972,13504.64
677,21916,13524.62
678,21872,13544.60
679,21852,13564.57
680,21836,13584.55
681,21828,13604.53
682,21820,13624.51
683,21816,13644.48
684,21808,13664.46
685,21808,13684.44
686,21812,13704.42
687,21812,13724.39
688,21812,13744.37
689,21812,13764.35
690,21808,13784.32
691,21808,13804.30
692,21808,13824.28
693,21812,13844.26
694,21816,13864.23
695,21824,13884.21
696,21836,13904.19
697,21848,13924.17
698,21860,13944.14
699,21872,13964.12
700,21888,13984.10
701,21896,14004.07
702,21908,14024.05
703,21924,14044.03
704,21936,14064.01
705,21944,14083.98
706,21956,14103.96
707,21968,14123.94
708,21976,14143.92
709,21984,14163.89
710,22000,14183.87
711,22012,14203.85
712,22024,14223.82
713,22036,14243.80
714,22052,14263.78
715,22068,14283.76
716,22072,14303.73
717,22056,14323.71
718,22020,14343.69
719,21960,14363.67
720,21900,14383.64
721,21844,14403.62
722,21812,14423.60
723,21788,14443.57
724,21780,14463.55
725,21772,14483.53
726,21764,14503.51
727,21752,14523.48
728,21748,14543.46
729,21744,14563.44
730,21748,14583.42
731,21748,14603.39
732,21756,14623.37
733,21756,14643.35
734,21752,14663.32
735,21756,14683.30
736,21752,14703.28
737,21760,14723.26
738,21764,14743.23
739,21776,14763.21
740,21788,14783.19
741,21808,14803.17
742,21816,14823.14
743,21832,14843.12
744,21844,14863.10
745,21856,14883.07
746,21872,14903.05
747,21884,14923.03
748,21900,14943.01
749,21916,14962.98
750,21920,14982.96
751,21932,15002.94
752,21944,15022.92
753,21956,15042.89
754,21964,15062.87
755,21972,15082.85
756,21984,15102.83
757,21988,15122.80
758,22004,15142.78
759,22012,15162.76
760,22024,15182.73
761,22024,15202.71
762,22000,15222.69
763,21956,15242.67
764,21896,15262.64
765,21832,15282.62
766,21780,15302.60
767,21748,15322.58
768,21728,15342.55
769,21724,15362.53
770,21720,15382.51
771,21712,15402.48
772,21704,15422.46
773,21704,15442.44
774,21708,15462.42
775,21712,15482.39
776,21716,15502.37
777,21716,15522.35
778,21708,15542.33
779,21704,15562.30
780,21708,15582.28
781,21712,15602.26
782,21716,15622.23
783,21720,15642.21
784,21732,15662.19
785,21752,15682.17
786,21768,15702.14
787,21780,15722.12
788,21796,15742.10
789,21808,15762.08
790,21816,15782.05
791,21828,15802.03
792,21844,15822.01
793,21860,15841.98
794,21868,15861.96
795,21884,15881.94
796,21900,15901.92
797,21920,15921.89
798,21936,15941.87
799,21956,15961.85
800,21972,15981.83
801,21992,16001.80
802,22012,16021.78
803,22024,16041.76
804,22040,16061.73
805,22052,16081.71
806,22072,16101.69
807,22084,16121.67
808,22100,16141.64
809,22112,16161.62
810,22092,16181.60
811,22044,16201.58
812,21980,16221.55
813,21912,16241.53
814,21856,16261.51
815,21816,16281.48
816,21792,16301.46
817,21780,16321.44
818,21768,16341.42
819,21752,16361.39
820,21748,16381.37
821,21736,16401.35
822,21732,16421.33
823,21736,16441.30
824,21740,16461.28
825,21744,16481.26
826,21744,16501.23
827,21744,16521.21
828,21736,16541.19
829,21736,16561.17
830,21732,16581.14
831,21732,16601.12
832,21740,16621.10
833,21752,16641.08
834,21764,16661.05
835,21780,16681.03
836,21788,16701.01
837,21800,16720.98
838,21812,16740.96
839,21824,16760.94
840,21832,16780.92
841,21844,16800.89
842,21856,16820.87
843,21864,16840.85
844,21876,16860.83
845,21888,16880.80
846,21904,16900.78
847,21912,16920.76
848,21928,16940.73
849,21944,16960.71
850,21960,16980.69
851,21972,17000.67
852,21988,17020.64
853,21988,17040.62
854,21976,17060.60
855,21928,17080.58
856,21868,17100.55
857,21804,17120.53
858,21760,17140.51
859,21732,17160.49
860,21712,17180.46
861,21704,17200.44
862,21700,17220.42
863,21692,17240.39
864,21684,17260.37
865,21676,17280.35
866,21680,17300.33
867,21688,17320.30
868,21692,17340.28
869,21696,17360.26
870,21700,17380.24
871,21704,17400.21
872,21704,17420.19
873,21712,17440.17
874,21716,17460.14
875,21728,17480.12
876,21736,17500.10
877,21756,17520.08
878,21768,17540.05
879,21788,17560.03
880,21804,17580.01
881,21820,17599.99
882,21836,17619.96
883,21852,17639.94
884,21864,17659.92
885,21880,17679.89
886,21896,17699.87
887,21912,17719.85
888,21924,17739.83
889,21932,17759.80
890,21948,17779.78
891,21968,17799.76
892,21988,17819.74
893,22004,17839.71
894,22020,17859.69
895,22036,17879.67
896,22056,17899.64
897,22072,17919.62
898,22088,17939.60
899,22104,17959.58
900,22116,17979.55
901,22132,17999.53
902,22132,18019.51
903,22100,18039.49
904,22044,18059.46
905,21972,18079.44
906,21908,18099.42
907,21860,18119.39
908,21828,18139.37
909,21816,18159.35
910,21796,18179.33
911,21788,18199.30
912,21776,18219.28
913,21772,18239.26
914,21764,18259.24
915,21760,18279.21
916,21760,18299.19
917,21756,18319.17
918,21760,18339.14
919,21752,18359.12
920,21748,18379.10
921,21748,18399.08
922,21748,18419.05
923,21752,18439.03
924,21760,18459.01
925,21772,18478.99
926,21788,18498.96
927,21800,18518.94
928,21816,18538.92
929,21828,18558.89
930,21844,18578.87
931,21860,18598.85
932,21872,18618.83
933,21884,18638.80
934,21892,18658.78
935,21908,18678.76
936,21924,18698.74
937,21936,18718.71
938,21952,18738.69
939,21960,18758.67
940,21976,18778.64
941,21992,18798.62
942,22004,18818.60
943,22016,18838.58
944,22028,18858.55
945,22020,18878.53
946,21980,18898.51
947,21920,18918.49
948,21852,18938.46
949,21796,18958.44
950,21752,18978.42
951,21728,18998.40
952,21720,19018.37
953,21716,19038.35
954,21716,19058.33
955,21712,19078.30
956,21704,19098.28
957,21700,19118.26
958,21700,19138.24
959,21712,19158.21
960,21724,19178.19
961,21728,19198.17
962,21728,19218.15
963,21732,19238.12
964,21728,19258.10
965,21736,19278.08
966,21736,19298.05
967,21748,19318.03
968,21760,19338.01
969,21784,19357.99
970,21800,19377.96
971,21816,19397.94
972,21832,19417.92
973,21848,19437.90
974,21868,19457.87
975,21884,19477.85
976,21896,19497.83
977,21908,19517.80
978,21924,19537.78
979,21940,19557.76
980,21952,19577.74
981,21964,19597.71
982,21980,19617.69
983,21992,19637.67
984,22004,19657.65
985,22016,19677.62
986,22032,19697.60
987,22044,19717.58
988,22052,19737.55
989,22036,19757.53
990,21996,19777.51
991,21936,19797.49
992,21872,19817.46
993,21808,19837.44
994,21772,19857.42
995,21748,19877.40
996,21740,19897.37
997,21736,19917.35
998,21728,19937.33
999,21724,19957.30
1000,21728,19977.28
1001,21740,19997.26
1002,21740,20017.24
1003,21744,20037.21
1004,21740,20057.19
1005,21744,20077.17
1006,21744,20097.15
1007,21748,20117.12
1008,21748,20137.10
1009,21748,20157.08
1010,21752,20177.05
1011,21768,20197.03
1012,21780,20217.01
1013,21800,20236.99
1014,21820,20256.96
1015,21832,20276.94
1016,21848,20296.92
1017,21868,20316.90
1018,21888,20336.87
1019,21904,20356.85
1020,21916,20376.83
1021,21928,20396.80
1022,21944,20416.78
1023,21956,20436.76
1024,21972,20456.74
1025,21984,20476.71
1026,22000,20496.69
1027,22016,20516.67
1028,22032,20536.65
1029,22048,20556.62
1030,22052,20576.60
1031,22020,20596.58
1032,21968,20616.55
1033,21908,20636.53
1034,21844,20656.51
1035,21800,20676.49
1036,21776,20696.46
1037,21764,20716.44
1038,21760,20736.42
1039,21760,20756.40
1040,21756,20776.37
1041,21752,20796.35
1042,21752,20816.33
1043,21756,20836.30
1044,21764,20856.28
1045,21768,20876.26
1046,21776,20896.24
1047,21776,20916.21
1048,21776,20936.19
1049,21780,20956.17
1050,21784,20976.15
1051,21796,20996.12
1052,21804,21016.10
1053,21820,21036.08
1054,21828,21056.06
1055,21848,21076.03
1056,21860,21096.01
1057,21876,21115.99
1058,21892,21135.96
1059,21908,21155.94
1060,21920,21175.92
1061,21936,21195.90
1062,21948,21215.87
1063,21960,21235.85
1064,21976,21255.83
1065,21984,21275.81
1066,21996,21295.78
1067,22004,21315.76
1068,22016,21335.74
1069,22036,21355.71
1070,22036,21375.69
1071,22012,21395.67
1072,21964,21415.65
1073,21904,21435.62
1074,21840,21455.60
1075,21788,21475.58
1076,21756,21495.56
1077,21744,21515.53
1078,21740,21535.51
1079,21740,21555.49
1080,21744,21575.46
1081,21744,21595.44
1082,21744,21615.42
1083,21756,21635.40
1084,21760,21655.37
1085,21768,21675.35
1086,21768,21695.33
1087,21768,21715.31
1088,21764,21735.28
1089,21764,21755.26
1090,21768,21775.24
1091,21776,21795.21
1092,21784,21815.19
1093,21796,21835.17
1094,21812,21855.15
1095,21832,21875.12
1096,21848,21895.10
1097,21864,21915.08
1098,21876,21935.06
1099,21888,21955.03
1100,21904,21975.01
1101,21912,21994.99
1102,21928,22014.96
1103,21944,22034.94
1104,21960,22054.92
1105,21976,22074.90
1106,21992,22094.87
1107,22012,22114.85
1108,22032,22134.83
1109,22044,22154.81
1110,22064,22174.78
1111,22080,22194.76
1112,22096,22214.74
1113,22108,22234.71
1114,22096,22254.69
1115,22056,22274.67
1116,21988,22294.65
1117,21916,22314.62
1118,21852,22334.60
1119,21804,22354.58
1120,21780,22374.56
1121,21760,22394.53
1122,21752,22414.51
1123,21752,22434.49
1124,21748,22454.46
1125,21744,22474.44
1126,21748,22494.42
1127,21752,22514.40
1128,21760,22534.37
1129,21760,22554.35
1130,21768,22574.33
1131,21764,22594.31
1132,21764,22614.28
1133,21764,22634.26
1134,21764,22654.24
1135,21764,22674.21
1136,21772,22694.19
1137,21788,22714.17
1138,21804,22734.15
1139,21816,22754.12
1140,21828,22774.10
1141,21840,22794.08
1142,21856,22814.06
1143,21868,22834.03
1144,21880,22854.01
1145,21888,22873.99
1146,21900,22893.96
1147,21908,22913.94
1148,21924,22933.92
1149,21936,22953.90
1150,21944,22973.87
1151,21956,22993.85
1152,21968,23013.83
1153,21980,23033.81
1154,21960,23053.78
1155,21920,23073.76
1156,21856,23093.74
1157,21788,23113.72
1158,21732,23133.69
1159,21696,23153.67
1160,21684,23173.65
1161,21680,23193.62
1162,21676,23213.60
1163,21684,23233.58
1164,21680,23253.56
1165,21688,23273.53
1166,21700,23293.51
1167,21700,23313.49
1168,21712,23333.47
1169,21716,23353.44
1170,21720,23373.42
1171,21720,23393.40
1172,21724,23413.37
1173,21724,23433.35
1174,21732,23453.33
1175,21740,23473.31
1176,21756,23493.28
1177,21772,23513.26
1178,21784,23533.24
1179,21796,23553.22
1180,21816,23573.19
1181,21828,23593.17
1182,21848,23613.15
1183,21864,23633.12
1184,21880,23653.10
1185,21900,23673.08
1186,21920,23693.06
1187,21940,23713.03
1188,21956,23733.01
1189,21972,23752.99
1190,21988,23772.97
1191,22004,23792.94
1192,22020,23812.92
1193,22040,23832.90
1194,22056,23852.87
1195,22072,23872.85
1196,22068,23892.83
1197,22036,23912.81
1198,21976,23932.78
1199,21896,23952.76
1200,21824,23972.74
1201,21776,23992.72
1202,21744,24012.69
1203,21728,24032.67
1204,21728,24052.65
1205,21728,24072.62
1206,21724,24092.60
1207,21728,24112.58
1208,21732,24132.56
1209,21736,24152.53
1210,21740,24172.51
1211,21744,24192.49
1212,21748,24212.47
1213,21748,24232.44
1214,21748,24252.42
1215,21748,24272.40
1216,21752,24292.37
1217,21756,24312.35
1218,21768,24332.33
1219,21776,24352.31
1220,21792,24372.28
1221,21804,24392.26
1222,21812,24412.24
1223,21828,24432.22
1224,21844,24452.19
1225,21852,24472.17
1226,21860,24492.15
1227,21868,24512.12
1228,21876,24532.10
1229,21888,24552.08
1230,21896,24572.06
1231,21912,24592.03
1232,21920,24612.01
1233,21932,24631.99
1234,21940,24651.97
1235,21928,24671.94
1236,21884,24691.92
1237,21816,24711.90
1238,21744,24731.87
1239,21684,24751.85
1240,21648,24771.83
1241,21632,24791.81
1242,21624,24811.78
1243,21624,24831.76
1244,21632,24851.74
1245,21636,24871.72
1246,21644,24891.69
1247,21652,24911.67
1248,21664,24931.65
1249,21672,24951.63
1250,21676,24971.60
1251,21684,24991.58
1252,21684,25011.56
1253,21680,25031.53
1254,21684,25051.51
1255,21692,25071.49
1256,21704,25091.47
1257,21712,25111.44
1258,21736,25131.42
1259,21756,25151.40
1260,21780,25171.38
1261,21804,25191.35
1262,21824,25211.33
1263,21848,25231.31
1264,21864,25251.28
1265,21880,25271.26
1266,21900,25291.24
1267,21916,25311.22
1268,21932,25331.19
1269,21944,25351.17
1270,21960,25371.15
1271,21976,25391.13
1272,21996,25411.10
1273,22012,25431.08
1274,22032,25451.06
1275,22040,25471.03
1276,22020,25491.01
1277,21968,25510.99
1278,21892,25530.97
1279,21816,25550.94
1280,21752,25570.92
1281,21712,25590.90
1282,21692,25610.88
1283,21684,25630.85
1284,21684,25650.83
1285,21684,25670.81
1286,21688,25690.78
1287,21692,25710.76
1288,21708,25730.74
1289,21716,25750.72
1290,21728,25770.69
1291,21732,25790.67
1292,21732,25810.65
1293,21736,25830.63
1294,21736,25850.60
1295,21732,25870.58
1296,21736,25890.56
1297,21744,25910.53
1298,21756,25930.51
1299,21768,25950.49
1300,21780,25970.47
1301,21792,25990.44
1302,21812,26010.42
1303,21828,26030.40
1304,21844,26050.38
1305,21860,26070.35
1306,21872,26090.33
1307,21884,26110.31
1308,21892,26130.28
1309,21900,26150.26
1310,21908,26170.24
1311,21908,26190.22
1312,21892,26210.19
1313,21848,26230.17
1314,21780,26250.15
1315,21712,26270.13
1316,21648,26290.10
1317,21604,26310.08
1318,21584,26330.06
1319,21580,26350.03
1320,21576,26370.01
1321,21580,26389.99
1322,21584,26409.97
1323,21596,26429.94
1324,21612,26449.92
1325,21620,26469.90
1326,21628,26489.88
1327,21632,26509.85
1328,21632,26529.83
1329,21632,26549.81
1330,21632,26569.78
1331,21636,26589.76
1332,21640,26609.74
1333,21652,26629.72
1334,21668,26649.69
1335,21684,26669.67
1336,21704,26689.65
1337,21720,26709.63
1338,21744,26729.60
1339,21760,26749.58
1340,21776,26769.56
1341,21796,26789.53
1342,21808,26809.51
1343,21828,26829.49
1344,21848,26849.47
1345,21864,26869.44
1346,21888,26889.42
1347,21908,26909.40
1348,21924,26929.38
1349,21928,26949.35
1350,21892,26969.33
1351,21820,26989.31
1352,21744,27009.29
1353,21676,27029.26
1354,21616,27049.24
1355,21580,27069.22
1356,21568,27089.19
1357,21568,27109.17
1358,21568,27129.15
1359,21576,27149.13
1360,21580,27169.10
1361,21592,27189.08
1362,21600,27209.06
1363,21612,27229.04
1364,21612,27249.01
1365,21620,27268.99
1366,21620,27288.97
1367,21620,27308.94
1368,21624,27328.92
1369,21628,27348.90
1370,21636,27368.88
1371,21652,27388.85
1372,21668,27408.83
1373,21684,27428.81
1374,21704,27448.79
1375,21720,27468.76
1376,21744,27488.74
1377,21764,27508.72
1378,21784,27528.69
1379,21800,27548.67
1380,21820,27568.65
1381,21836,27588.63
1382,21856,27608.60
1383,21872,27628.58
1384,21892,27648.56
1385,21904,27668.54
1386,21896,27688.51
1387,21860,27708.49
1388,21796,27728.47
1389,21732,27748.44
1390,21672,27768.42
1391,21628,27788.40
1392,21608,27808.38
1393,21596,27828.35
1394,21600,27848.33
1395,21604,27868.31
1396,21616,27888.29
1397,21624,27908.26
1398,21636,27928.24
1399,21644,27948.22
1400,21652,27968.19
1401,21648,27988.17
1402,21636,28008.15
1403,21624,28028.13
1404,21612,28048.10
1405,21604,28068.08
1406,21604,28088.06
1407,21612,28108.04
1408,21624,28128.01
1409,21636,28147.99
1410,21652,28167.97
1411,21672,28187.94
1412,21688,28207.92
1413,21708,28227.90
1414,21724,28247.88
1415,21740,28267.85
1416,21756,28287.83
1417,21772,28307.81
1418,21788,28327.79
1419,21800,28347.76
1420,21816,28367.74
1421,21808,28387.72
1422,21764,28407.69
1423,21692,28427.67
1424,21620,28447.65
1425,21560,28467.63
1426,21512,28487.60
1427,21492,28507.58
1428,21488,28527.56
1429,21488,28547.54
1430,21492,28567.51
1431,21500,28587.49
1432,21516,28607.47
1433,21532,28627.44
1434,21552,28647.42
1435,21564,28667.40
1436,21576,28687.38
1437,21584,28707.35
1438,21580,28727.33
1439,21580,28747.31
1440,21588,28767.29
1441,21592,28787.26
1442,21604,28807.24
1443,21616,28827.22
1444,21632,28847.19
1445,21644,28867.17
1446,21664,28887.15
1447,21684,28907.13
1448,21700,28927.10
1449,21720,28947.08
1450,21736,28967.06
1451,21756,28987.04
1452,21772,29007.01
1453,21784,29026.99
1454,21804,29046.97
1455,21816,29066.95
1456,21832,29086.92
1457,21848,29106.90
1458,21868,29126.88
1459,21884,29146.85
1460,21892,29166.83
1461,21884,29186.81
1462,21840,29206.79
1463,21780,29226.76
1464,21708,29246.74
1465,21648,29266.72
1466,21600,29286.70
1467,21572,29306.67
1468,21552,29326.65
1469,21544,29346.63
1470,21544,29366.60
1471,21544,29386.58
1472,21556,29406.56
1473,21568,29426.54
1474,21588,29446.51
1475,21596,29466.49
1476,21604,29486.47
1477,21608,29506.45
1478,21608,29526.42
1479,21604,29546.40
1480,21600,29566.38
1481,21604,29586.35
1482,21604,29606.33
1483,21612,29626.31
1484,21624,29646.29
1485,21636,29666.26
1486,21648,29686.24
1487,21664,29706.22
1488,21676,29726.20
1489,21692,29746.17
1490,21708,29766.15
1491,21724,29786.13
1492,21736,29806.10
1493,21752,29826.08
1494,21768,29846.06
1495,21764,29866.04
1496,21728,29886.01
1497,21660,29905.99
1498,21592,29925.97
1499,21528,29945.95
1500,21480,29965.92
1501,21460,29985.90
1502,21452,30005.88
1503,21448,30025.85
1504,21452,30045.83
1505,21464,30065.81
1506,21480,30085.79
1507,21496,30105.76
1508,21508,30125.74
1509,21528,30145.72
1510,21540,30165.70
1511,21544,30185.67
1512,21548,30205.65
1513,21552,30225.63
1514,21560,30245.60
1515,21572,30265.58
1516,21588,30285.56
1517,21608,30305.54
1518,21628,30325.51
1519,21656,30345.49
1520,21680,30365.47
1521,21708,30385.45
1522,21728,30405.42
1523,21752,30425.40
1524,21776,30445.38
1525,21792,30465.35
1526,21820,30485.33
1527,21836,30505.31
1528,21856,30525.29
1529,21876,30545.26
1530,21892,30565.24
1531,21912,30585.22
1532,21920,30605.20
1533,21896,30625.17
1534,21840,30645.15
1535,21772,30665.13
1536,21712,30685.10
1537,21660,30705.08
1538,21624,30725.06
1539,21608,30745.04
1540,21600,30765.01
1541,21600,30784.99
1542,21608,30804.97
1543,21612,30824.95
1544,21616,30844.92
1545,21632,30864.90
1546,21640,30884.88
1547,21656,30904.85
1548,21660,30924.83
1549,21668,30944.81
1550,21672,30964.79
1551,21676,30984.76
1552,21680,31004.74
1553,21688,31024.72
1554,21700,31044.70
1555,21716,31064.67
1556,21728,31084.65
1557,21748,31104.63
1558,21768,31124.61
1559,21784,31144.58
1560,21796,31164.56
1561,21808,31184.54
1562,21820,31204.51
1563,21836,31224.49
1564,21852,31244.47
1565,21876,31264.45
1566,21880,31284.42
1567,21864,31304.40
1568,21824,31324.38
1569,21772,31344.36
1570,21708,31364.33
1571,21664,31384.31
1572,21640,31404.29
1573,21628,31424.26
1574,21628,31444.24
1575,21632,31464.22
1576,21640,31484.20
1577,21644,31504.17
1578,21660,31524.15
1579,21672,31544.13
1580,21680,31564.11
1581,21692,31584.08
1582,21696,31604.06
1583,21704,31624.04
1584,21708,31644.01
1585,21716,31663.99
1586,21724,31683.97
1587,21736,31703.95
1588,21748,31723.92
1589,21764,31743.90
1590,21784,31763.88
1591,21800,31783.86
1592,21816,31803.83
1593,21840,31823.81
1594,21860,31843.79
1595,21884,31863.76
1596,21908,31883.74
1597,21932,31903.72
1598,21948,31923.70
1599,21968,31943.67
1600,21992,31963.65
1601,22012,31983.63
1602,22028,32003.61
1603,22048,32023.58
1604,22048,32043.56
1605,22024,32063.54
1606,21976,32083.51
1607,21908,32103.49
1608,21844,32123.47
1609,21796,32143.45
1610,21768,32163.42
1611,21752,32183.40
1612,21744,32203.38
1613,21744,32223.36
1614,21748,32243.33
1615,21752,32263.31
1616,21764,32283.29
1617,21776,32303.26
1618,21780,32323.24
1619,21792,32343.22
1620,21796,32363.20
1621,21804,32383.17
1622,21800,32403.15
1623,21796,32423.13
1624,21804,32443.11
1625,21808,32463.08
1626,21820,32483.06
1627,21824,32503.04
1628,21836,32523.01
1629,21848,32542.99
1630,21864,32562.97
1631,21880,32582.95
1632,21892,32602.92
1633,21900,32622.90
1634,21912,32642.88
1635,21924,32662.86
1636,21936,32682.83
1637,21944,32702.81
1638,21952,32722.79
1639,21940,32742.76
1640,21904,32762.74
1641,21848,32782.72
1642,21788,32802.70
1643,21732,32822.67
1644,21692,32842.65
1645,21668,32862.63
1646,21664,32882.61
1647,21668,32902.58
1648,21672,32922.56
1649,21672,32942.54
1650,21684,32962.52
1651,21700,32982.49
1652,21712,33002.47
1653,21724,33022.45
1654,21732,33042.42
1655,21736,33062.40
1656,21740,33082.38
1657,21748,33102.36
1658,21748,33122.33
1659,21760,33142.31
1660,21768,33162.29
1661,21784,33182.27
1662,21800,33202.24
1663,21816,33222.22
1664,21836,33242.20
1665,21852,33262.17
1666,21868,33282.15
1667,21884,33302.13
1668,21900,33322.11
1669,21908,33342.08
1670,21924,33362.06
1671,21940,33382.04
1672,21956,33402.02
1673,21968,33421.99
1674,21988,33441.97
1675,22004,33461.95
1676,22000,33481.92
1677,21972,33501.90
1678,21916,33521.88
1679,21848,33541.86
1680,21788,33561.83
1681,21736,33581.81
1682,21708,33601.79
1683,21696,33621.77
1684,21692,33641.74
1685,21688,33661.72
1686,21696,33681.70
1687,21704,33701.67
1688,21708,33721.65
1689,21720,33741.63
1690,21732,33761.61
1691,21744,33781.58
1692,21748,33801.56
1693,21756,33821.54
1694,21760,33841.52
1695,21760,33861.49
1696,21764,33881.47
1697,21776,33901.45
1698,21788,33921.42
1699,21800,33941.40
1700,21816,33961.38
1701,21828,33981.36
1702,21844,34001.33
1703,21860,34021.31
1704,21880,34041.29
1705,21896,34061.27
1706,21912,34081.24
1707,21924,34101.22
1708,21940,34121.20
1709,21956,34141.17
1710,21968,34161.15
1711,21976,34181.13
1712,21980,34201.11
1713,21952,34221.08
1714,21900,34241.06
1715,21832,34261.04
1716,21764,34281.02
1717,21708,34300.99
1718,21676,34320.97
1719,21652,34340.95
1720,21640,34360.92
1721,21636,34380.90
1722,21632,34400.88
1723,21640,34420.86
1724,21648,34440.83
1725,21656,34460.81
1726,21668,34480.79
1727,21676,34500.77
1728,21676,34520.74
1729,21680,34540.72
1730,21680,34560.70
1731,21684,34580.67
1732,21688,34600.65
1733,21696,34620.63
1734,21712,34640.61
1735,21720,34660.58
1736,21736,34680.56
1737,21748,34700.54
1738,21772,34720.52
1739,21788,34740.49
1740,21804,34760.47
1741,21816,34780.45
1742,21840,34800.42
1743,21852,34820.40
1744,21872,34840.38
1745,21888,34860.36
1746,21904,34880.33
1747,21916,34900.31
1748,21908,34920.29
1749,21868,34940.27
1750,21804,34960.24
1751,21736,34980.22
1752,21676,35000.20
1753,21628,35020.18
1754,21604,35040.15
1755,21592,35060.13
1756,21588,35080.11
1757,21592,35100.08
1758,21592,35120.06
1759,21600,35140.04
1760,21612,35160.02
1761,21628,35179.99
1762,21636,35199.97
1763,21644,35219.95
1764,21652,35239.93
1765,21652,35259.90
1766,21660,35279.88
1767,21664,35299.86
1768,21668,35319.83
1769,21676,35339.81
1770,21688,35359.79
1771,21704,35379.77
1772,21720,35399.74
1773,21732,35419.72
1774,21756,35439.70
1775,21772,35459.68
1776,21792,35479.65
1777,21808,35499.63
1778,21828,35519.61
1779,21844,35539.58
1780,21864,35559.56
1781,21884,35579.54
1782,21896,35599.52
1783,21908,35619.49
1784,21928,35639.47
1785,21944,35659.45
1786,21964,35679.43
1787,21960,35699.40
1788,21928,35719.38
1789,21872,35739.36
1790,21808,35759.33
1791,21740,35779.31
1792,21684,35799.29
1793,21648,35819.27
1794,21632,35839.24
1795,21624,35859.22
1796,21620,35879.20
1797,21620,35899.18
1798,21632,35919.15
1799,21640,35939.13
1800,21652,35959.11
1801,21656,35979.08
1802,21656,35999.06
1803,21652,36019.04
1804,21648,36039.02
1805,21640,36058.99
1806,21636,36078.97
1807,21636,36098.95
1808,21644,36118.93
1809,21652,36138.90
1810,21668,36158.88
1811,21680,36178.86
1812,21700,36198.83
1813,21716,36218.81
1814,21732,36238.79
1815,21748,36258.77
1816,21764,36278.74
1817,21776,36298.72
1818,21792,36318.70
1819,21808,36338.68
1820,21824,36358.65
1821,21836,36378.63
1822,21856,36398.61
1823,21864,36418.58
1824,21848,36438.56
1825,21800,36458.54
1826,21740,36478.52
1827,21672,36498.49
1828,21620,36518.47
1829,21580,36538.45
1830,21564,36558.43
1831,21556,36578.40
1832,21556,36598.38
1833,21556,36618.36
1834,21568,36638.33
1835,21580,36658.31
1836,21592,36678.29
1837,21604,36698.27
1838,21620,36718.24
1839,21628,36738.22
1840,21636,36758.20
1841,21644,36778.18
1842,21652,36798.15
1843,21656,36818.13
1844,21668,36838.11
1845,21684,36858.08
1846,21700,36878.06
1847,21716,36898.04
1848,21732,36918.02
1849,21752,36937.99
1850,21768,36957.97
1851,21784,36977.95
1852,21800,36997.93
1853,21816,37017.90
1854,21832,37037.88
1855,21848,37057.86
1856,21868,37077.84
1857,21888,37097.81
1858,21904,37117.79
1859,21916,37137.77
1860,21932,37157.74
1861,21944,37177.72
1862,21964,37197.70
1863,21976,37217.68
1864,21988,37237.65
1865,21992,37257.63
1866,21968,37277.61
1867,21912,37297.59
1868,21844,37317.56
1869,21768,37337.54
1870,21712,37357.52
1871,21676,37377.49
1872,21652,37397.47
1873,21640,37417.45
1874,21640,37437.43
1875,21640,37457.40
1876,21644,37477.38
1877,21652,37497.36
1878,21660,37517.34
1879,21668,37537.31
1880,21672,37557.29
1881,21676,37577.27
1882,21672,37597.24
1883,21660,37617.22
1884,21652,37637.20
1885,21648,37657.18
1886,21652,37677.15
1887,21656,37697.13
1888,21668,37717.11
1889,21684,37737.09
1890,21700,37757.06
1891,21716,37777.04
1892,21736,37797.02
1893,21748,37816.99
1894,21764,37836.97
1895,21776,37856.95
1896,21788,37876.93
1897,21800,37896.90
1898,21808,37916.88
1899,21824,37936.86
1900,21832,37956.84
1901,21848,37976.81
1902,21840,37996.79
1903,21804,38016.77
1904,21748,38036.74
1905,21680,38056.72
1906,21608,38076.70
1907,21564,38096.68
1908,21532,38116.65
1909,21516,38136.63
1910,21512,38156.61
1911,21508,38176.59
1912,21512,38196.56
1913,21524,38216.54
1914,21528,38236.52
1915,21540,38256.49
1916,21548,38276.47
1917,21560,38296.45
1918,21576,38316.43
1919,21588,38336.40
1920,21588,38356.38
1921,21592,38376.36
1922,21600,38396.34
1923,21620,38416.31
1924,21640,38436.29
1925,21660,38456.27
1926,21680,38476.24
1927,21696,38496.22
1928,21716,38516.20
1929,21740,38536.18
1930,21756,38556.15
1931,21776,38576.13
1932,21796,38596.11
1933,21812,38616.09
1934,21832,38636.06
1935,21848,38656.04
1936,21868,38676.02
1937,21888,38695.99
1938,21900,38715.97
1939,21916,38735.95
1940,21932,38755.93
1941,21952,38775.90
1942,21948,38795.88
1943,21920,38815.86
1944,21860,38835.84
1945,21788,38855.81
1946,21712,38875.79
1947,21656,38895.77
1948,21612,38915.75
1949,21588,38935.72
1950,21576,38955.70
1951,21576,38975.68
1952,21564,38995.65
1953,21564,39015.63
1954,21572,39035.61
1955,21576,39055.59
1956,21588,39075.56
1957,21596,39095.54
1958,21596,39115.52
1959,21596,39135.50
1960,21592,39155.47
1961,21592,39175.45
1962,21588,39195.43
1963,21588,39215.40
1964,21592,39235.38
1965,21604,39255.36
1966,21612,39275.34
1967,21624,39295.31
1968,21640,39315.29
1969,21656,39335.27
1970,21676,39355.25
1971,21692,39375.22
1972,21704,39395.20
1973,21716,39415.18
1974,21728,39435.15
1975,21748,39455.13
1976,21760,39475.11
1977,21768,39495.09
1978,21740,39515.06
1979,21700,39535.04
1980,21632,39555.02
1981,21564,39575.00
1982,21508,39594.97
1983,21472,39614.95
1984,21448,39634.93
1985,21440,39654.90
1986,21436,39674.88
1987,21436,39694.86
1988,21432,39714.84
1989,21440,39734.81
1990,21448,39754.79
1991,21460,39774.77
1992,21468,39794.75
1993,21472,39814.72
1994,21476,39834.70
1995,21476,39854.68
1996,21480,39874.65
1997,21484,39894.63
1998,21492,39914.61
1999,21504,39934.59
2000,21520,39954.56
2001,21536,39974.54
2002,21556,39994.52
2003,21580,40014.50
2004,21604,40034.47
2005,21624,40054.45
2006,21644,40074.43
2007,21664,40094.40
2008,21680,40114.38
2009,21700,40134.36
2010,21720,40154.34
2011,21736,40174.31
2012,21756,40194.29
2013,21772,40214.27
2014,21780,40234.25
2015,21764,40254.22
2016,21716,40274.20
2017,21644,40294.18
2018,21576,40314.15
2019,21516,40334.13
2020,21472,40354.11
2021,21452,40374.09
2022,21444,40394.06
2023,21436,40414.04
2024,21436,40434.02
2025,21436,40454.00
2026,21444,40473.97
2027,21460,40493.95
2028,21468,40513.93
2029,21480,40533.90
2030,21488,40553.88
2031,21484,40573.86
2032,21488,40593.84
2033,21488,40613.81
2034,21488,40633.79
2035,21492,40653.77
2036,21496,40673.75
2037,21512,40693.72
2038,21524,40713.70
2039,21536,40733.68
2040,21548,40753.65
2041,21564,40773.63
2042,21580,40793.61
2043,21592,40813.59
2044,21604,40833.56
2045,21624,40853.54
2046,21636,40873.52
2047,21656,40893.50
2048,21672,40913.47
2049,21688,40933.45
2050,21680,40953.43
2051,21648,40973.41
2052,21592,40993.38
2053,21528,41013.36
2054,21472,41033.34
2055,21428,41053.31
2056,21404,41073.29
2057,21396,41093.27
2058,21396,41113.25
2059,21400,41133.22
2060,21412,41153.20
2061,21420,41173.18
2062,21436,41193.16
2063,21452,41213.13
2064,21464,41233.11
2065,21464,41253.09
2066,21464,41273.06
2067,21456,41293.04
2068,21452,41313.02
2069,21452,41333.00
2070,21456,41352.97
2071,21460,41372.95
2072,21464,41392.93
2073,21476,41412.91
2074,21484,41432.88
2075,21492,41452.86
2076,21504,41472.84
2077,21516,41492.81
2078,21532,41512.79
2079,21544,41532.77
2080,21552,41552.75
2081,21568,41572.72
2082,21584,41592.70
2083,21600,41612.68
2084,21592,41632.66
2085,21560,41652.63
2086,21504,41672.61
2087,21440,41692.59
2088,21376,41712.56
2089,21332,41732.54
2090,21304,41752.52
2091,21288,41772.50
2092,21284,41792.47
2093,21288,41812.45
2094,21300,41832.43
2095,21312,41852.41
2096,21320,41872.38
2097,21336,41892.36
2098,21348,41912.34
2099,21360,41932.31
2100,21364,41952.29
2101,21372,41972.27
2102,21372,41992.25
2103,21380,42012.22
2104,21384,42032.20
2105,21396,42052.18
2106,21412,42072.16
2107,21436,42092.13
2108,21456,42112.11
2109,21476,42132.09
2110,21496,42152.06
2111,21520,42172.04
2112,21544,42192.02
2113,21560,42212.00
2114,21580,42231.97
2115,21600,42251.95
2116,21620,42271.93
2117,21640,42291.91
2118,21660,42311.88
2119,21676,42331.86
2120,21692,42351.84
2121,21712,42371.81
2122,21728,42391.79
2123,21744,42411.77
2124,21740,42431.75
2125,21712,42451.72
2126,21652,42471.70
2127,21572,42491.68
2128,21492,42511.66
2129,21432,42531.63
2130,21388,42551.61
2131,21360,42571.59
2132,21344,42591.56
2133,21340,42611.54
2134,21332,42631.52
2135,21328,42651.50
2136,21332,42671.47
2137,21340,42691.45
2138,21356,42711.43
2139,21364,42731.41
2140,21376,42751.38
2141,21380,42771.36
2142,21384,42791.34
2143,21384,42811.31
2144,21380,42831.29
2145,21384,42851.27
2146,21396,42871.25
2147,21400,42891.22
2148,21416,42911.20
2149,21432,42931.18
2150,21448,42951.16
2151,21464,42971.13
2152,21476,42991.11
2153,21488,43011.09
2154,21500,43031.07
2155,21508,43051.04
2156,21520,43071.02
2157,21528,43091.00
2158,21540,43110.97
2159,21552,43130.95
2160,21576,43150.93
2161,21588,43170.91
2162,21592,43190.88
2163,21560,43210.86
2164,21504,43230.84
2165,21428,43250.82
2166,21360,43270.79
2167,21308,43290.77
2168,21268,43310.75
2169,21244,43330.72
2170,21240,43350.70
2171,21236,43370.68
2172,21236,43390.66
2173,21236,43410.63
2174,21248,43430.61
2175,21260,43450.59
2176,21272,43470.57
2177,21284,43490.54
2178,21292,43510.52
2179,21304,43530.50
2180,21304,43550.47
2181,21308,43570.45
2182,21316,43590.43
2183,21332,43610.41
2184,21344,43630.38
2185,21364,43650.36
2186,21384,43670.34
2187,21404,43690.32
2188,21428,43710.29
2189,21444,43730.27
2190,21464,43750.25
2191,21484,43770.22
2192,21504,43790.20
2193,21528,43810.18
2194,21552,43830.16
2195,21576,43850.13
2196,21596,43870.11
2197,21620,43890.09
2198,21644,43910.07
2199,21664,43930.04
2200,21684,43950.02
2201,21696,43970.00
2202,21712,43989.97
2203,21732,44009.95
2204,21748,44029.93
2205,21772,44049.91
2206,21788,44069.88
2207,21792,44089.86
2208,21764,44109.84
2209,21700,44129.82
2210,21620,44149.79
2211,21540,44169.77
2212,21472,44189.75
2213,21424,44209.72
2214,21392,44229.70
2215,21372,44249.68
2216,21364,44269.66
2217,21364,44289.63
2218,21360,44309.61
2219,21364,44329.59
2220,21372,44349.57
2221,21384,44369.54
2222,21396,44389.52
2223,21404,44409.50
2224,21408,44429.47
2225,21408,44449.45
2226,21408,44469.43
2227,21412,44489.41
2228,21416,44509.38
2229,21432,44529.36
2230,21444,44549.34
2231,21460,44569.32
2232,21476,44589.29
2233,21488,44609.27
2234,21504,44629.25
2235,21520,44649.22
2236,21540,44669.20
2237,21552,44689.18
2238,21564,44709.16
2239,21580,44729.13
2240,21596,44749.11
2241,21616,44769.09
2242,21632,44789.07
2243,21648,44809.04
2244,21664,44829.02
2245,21676,44849.00
2246,21692,44868.98
2247,21708,44888.95
2248,21720,44908.93
2249,21708,44928.91
2250,21660,44948.88
2251,21588,44968.86
2252,21516,44988.84
2253,21448,45008.82
2254,21400,45028.79
2255,21364,45048.77
2256,21352,45068.75
2257,21352,45088.73
2258,21348,45108.70
2259,21344,45128.68
2260,21356,45148.66
2261,21368,45168.63
2262,21380,45188.61
2263,21392,45208.59
2264,21404,45228.57
2265,21412,45248.54
2266,21416,45268.52
2267,21416,45288.50
2268,21420,45308.48
2269,21432,45328.45
2270,21440,45348.43
2271,21452,45368.41
2272,21468,45388.38
2273,21488,45408.36
2274,21512,45428.34
2275,21536,45448.32
2276,21556,45468.29
2277,21576,45488.27
2278,21596,45508.25
2279,21620,45528.23
2280,21640,45548.20
2281,21664,45568.18
2282,21684,45588.16
2283,21708,45608.13
2284,21728,45628.11
2285,21744,45648.09
2286,21760,45668.07
2287,21784,45688.04
2288,21800,45708.02
2289,21820,45728.00
2290,21836,45747.98
2291,21856,45767.95
2292,21856,45787.93
2293,21820,45807.91
2294,21760,45827.88
2295,21676,45847.86
2296,21596,45867.84
2297,21528,45887.82
2298,21476,45907.79
2299,21448,45927.77
2300,21432,45947.75
2301,21424,45967.73
2302,21420,45987.70
2303,21416,46007.68
2304,21420,46027.66
2305,21428,46047.63
2306,21436,46067.61
2307,21444,46087.59
2308,21456,46107.57
2309,21456,46127.54
2310,21452,46147.52
2311,21452,46167.50
2312,21456,46187.48
2313,21456,46207.45
2314,21464,46227.43
2315,21472,46247.41
2316,21484,46267.38
2317,21504,46287.36
2318,21524,46307.34
2319,21544,46327.32
2320,21560,46347.29
2321,21580,46367.27
2322,21600,46387.25
2323,21612,46407.23
2324,21628,46427.20
2325,21640,46447.18
2326,21652,46467.16
2327,21660,46487.13
2328,21672,46507.11
2329,21684,46527.09
2330,21692,46547.07
2331,21708,46567.04
2332,21724,46587.02
2333,21720,46607.00
2334,21676,46626.98
2335,21612,46646.95
2336,21532,46666.93
2337,21452,46686.91
2338,21396,46706.88
2339,21360,46726.86
2340,21344,46746.84
2341,21340,46766.82
2342,21340,46786.79
2343,21348,46806.77
2344,21356,46826.75
2345,21368,46846.73
2346,21380,46866.70
2347,21396,46886.68
2348,21400,46906.66
2349,21404,46926.64
2350,21408,46946.61
2351,21408,46966.59
2352,21408,46986.57
2353,21408,47006.54
2354,21420,47026.52
2355,21436,47046.50
2356,21452,47066.48
2357,21472,47086.45
2358,21492,47106.43
2359,21512,47126.41
2360,21532,47146.39
2361,21552,47166.36
2362,21576,47186.34
2363,21596,47206.32
2364,21616,47226.29
2365,21640,47246.27
2366,21660,47266.25
2367,21680,47286.23
2368,21704,47306.20
2369,21720,47326.18
2370,21740,47346.16
2371,21756,47366.14
2372,21780,47386.11
2373,21796,47406.09
2374,21804,47426.07
2375,21788,47446.04
2376,21736,47466.02
2377,21660,47486.00
2378,21572,47505.98
2379,21496,47525.95
2380,21444,47545.93
2381,21412,47565.91
2382,21396,47585.89
2383,21384,47605.86
2384,21384,47625.84
2385,21388,47645.82
2386,21392,47665.79
2387,21400,47685.77
2388,21416,47705.75
2389,21428,47725.73
2390,21436,47745.70
2391,21440,47765.68
2392,21444,47785.66
2393,21440,47805.64
2394,21444,47825.61
2395,21444,47845.59
2396,21448,47865.57
2397,21452,47885.54
2398,21468,47905.52
2399,21484,47925.50
2400,21500,47945.48
2401,21520,47965.45
2402,21536,47985.43
2403,21552,48005.41
2404,21572,48025.39
2405,21584,48045.36
2406,21600,48065.34
2407,21612,48085.32
2408,21620,48105.29
2409,21636,48125.27
2410,21648,48145.25
2411,21660,48165.23
2412,21664,48185.20
2413,21660,48205.18
2414,21620,48225.16
2415,21548,48245.14
2416,21468,48265.11
2417,21392,48285.09
2418,21340,48305.07
2419,21308,48325.04
2420,21292,48345.02
2421,21292,48365.00
2422,21292,48384.98
2423,21300,48404.95
2424,21316,48424.93
2425,21328,48444.91
2426,21348,48464.89
2427,21360,48484.86
2428,21372,48504.84
2429,21372,48524.82
2430,21380,48544.79
2431,21380,48564.77
2432,21380,48584.75
2433,21392,48604.73
2434,21408,48624.70
2435,21420,48644.68
2436,21440,48664.66
2437,21456,48684.64
2438,21476,48704.61
2439,21500,48724.59
2440,21520,48744.57
2441,21536,48764.54
2442,21556,48784.52
2443,21572,48804.50
2444,21588,48824.48
2445,21612,48844.45
2446,21624,48864.43
2447,21644,48884.41
2448,21668,48904.39
2449,21692,48924.36
2450,21708,48944.34
2451,21720,48964.32
2452,21692,48984.30
2453,21628,49004.27
2454,21544,49024.25
2455,21456,49044.23
2456,21380,49064.20
2457,21332,49084.18
2458,21300,49104.16
2459,21292,49124.14
2460,21292,49144.11
2461,21296,49164.09
2462,21296,49184.07
2463,21304,49204.05
2464,21316,49224.02
2465,21336,49244.00
2466,21344,49263.98
2467,21352,49283.95
2468,21360,49303.93
2469,21360,49323.91
2470,21360,49343.89
2471,21364,49363.86
2472,21372,49383.84
2473,21384,49403.82
2474,21396,49423.80
2475,21412,49443.77
2476,21432,49463.75
2477,21452,49483.73
2478,21472,49503.70
2479,21488,49523.68
2480,21512,49543.66
2481,21520,49563.64
2482,21536,49583.61
2483,21552,49603.59
2484,21564,49623.57
2485,21584,49643.55
2486,21592,49663.52
2487,21592,49683.50
2488,21572,49703.48
2489,21516,49723.45
2490,21436,49743.43
2491,21348,49763.41
2492,21268,49783.39
2493,21220,49803.36
2494,21192,49823.34
2495,21184,49843.32
2496,21184,49863.30
2497,21188,49883.27
2498,21192,49903.25
2499,21204,49923.23
2500,21212,49943.20
2501,21232,49963.18
2502,21240,49983.16
2503,21248,50003.14
2504,21248,50023.11
2505,21252,50043.09
2506,21252,50063.07
2507,21252,50083.05
2508,21264,50103.02
2509,21280,50123.00
2510,21296,50142.98
2511,21312,50162.95
2512,21336,50182.93
2513,21360,50202.91
2514,21384,50222.89
2515,21404,50242.86
2516,21424,50262.84
2517,21444,50282.82
2518,21468,50302.80
2519,21492,50322.77
2520,21512,50342.75
2521,21528,50362.73
2522,21552,50382.70
2523,21568,50402.68
2524,21592,50422.66
2525,21612,50442.64
2526,21628,50462.61
2527,21620,50482.59
2528,21568,50502.57
2529,21488,50522.55
2530,21392,50542.52
2531,21312,50562.50
2532,21244,50582.48
2533,21204,50602.45
2534,21184,50622.43
2535,21176,50642.41
2536,21176,50662.39
2537,21168,50682.36
2538,21172,50702.34
2539,21180,50722.32
2540,21192,50742.30
2541,21208,50762.27
2542,21216,50782.25
2543,21220,50802.23
2544,21220,50822.20
2545,21224,50842.18
2546,21228,50862.16
2547,21232,50882.14
2548,21236,50902.11
2549,21248,50922.09
2550,21264,50942.07
2551,21284,50962.05
2552,21304,50982.02
2553,21324,51002.00
2554,21344,51021.98
2555,21368,51041.96
2556,21388,51061.93
2557,21396,51081.91
2558,21416,51101.89
2559,21428,51121.86
2560,21444,51141.84
2561,21456,51161.82
2562,21468,51181.80
2563,21484,51201.77
2564,21496,51221.75
2565,21512,51241.73
2566,21524,51261.71
2567,21520,51281.68
2568,21484,51301.66
2569,21408,51321.64
2570,21320,51341.61
2571,21228,51361.59
2572,21168,51381.57
2573,21124,51401.55
2574,21100,51421.52
2575,21100,51441.50
2576,21108,51461.48
2577,21116,51481.46
2578,21120,51501.43
2579,21128,51521.41
2580,21144,51541.39
2581,21156,51561.36
2582,21168,51581.34
2583,21168,51601.32
2584,21168,51621.30
2585,21172,51641.27
2586,21168,51661.25
2587,21176,51681.23
2588,21184,51701.21
2589,21200,51721.18
2590,21216,51741.16
2591,21236,51761.14
2592,21260,51781.11
2593,21284,51801.09
2594,21300,51821.07
2595,21320,51841.05
2596,21340,51861.02
2597,21364,51881.00
2598,21388,51900.98
2599,21408,51920.96
2600,21424,51940.93
2601,21448,51960.91
2602,21468,51980.89
2603,21492,52000.86
2604,21516,52020.84
2605,21536,52040.82
2606,21556,52060.80
2607,21576,52080.77
2608,21592,52100.75
2609,21608,52120.73
2610,21632,52140.71
2611,21648,52160.68
2612,21640,52180.66
2613,21584,52200.64
2614,21492,52220.61
2615,21388,52240.59
2616,21292,52260.57
2617,21212,52280.55
2618,21160,52300.52
2619,21132,52320.50
2620,21124,52340.48
2621,21116,52360.46
2622,21116,52380.43
2623,21112,52400.41
2624,21116,52420.39
2625,21120,52440.36
2626,21128,52460.34
2627,21132,52480.32
2628,21132,52500.30
2629,21140,52520.27
2630,21140,52540.25
2631,21132,52560.23
2632,21132,52580.21
2633,21136,52600.18
2634,21148,52620.16
2635,21160,52640.14
2636,21176,52660.11
2637,21196,52680.09
2638,21212,52700.07
2639,21240,52720.05
2640,21256,52740.02
2641,21276,52760.00
2642,21292,52779.98
2643,21304,52799.96
2644,21320,52819.93
2645,21332,52839.91
2646,21352,52859.89
2647,21364,52879.87
2648,21380,52899.84
2649,21392,52919.82
2650,21404,52939.80
2651,21424,52959.77
2652,21432,52979.75
2653,21452,52999.73
2654,21460,53019.71
2655,21448,53039.68
2656,21400,53059.66
2657,21312,53079.64
2658,21216,53099.62
2659,21128,53119.59
2660,21064,53139.57
2661,21024,53159.55
2662,21008,53179.52
2663,21004,53199.50
2664,21004,53219.48
2665,21008,53239.46
2666,21020,53259.43
2667,21032,53279.41
2668,21044,53299.39
2669,21052,53319.37
2670,21060,53339.34
2671,21064,53359.32
2672,21068,53379.30
2673,21064,53399.27
2674,21068,53419.25
2675,21072,53439.23
2676,21080,53459.21
2677,21092,53479.18
2678,21108,53499.16
2679,21124,53519.14
2680,21148,53539.12
2681,21168,53559.09
2682,21188,53579.07
2683,21212,53599.05
2684,21232,53619.02
2685,21252,53639.00
2686,21272,53658.98
2687,21292,53678.96
2688,21312,53698.93
2689,21332,53718.91
2690,21356,53738.89
2691,21376,53758.87
2692,21396,53778.84
2693,21412,53798.82
2694,21432,53818.80
2695,21452,53838.77
2696,21472,53858.75
2697,21492,53878.73
2698,21496,53898.71
2699,21460,53918.68
2700,21384,53938.66
2701,21288,53958.64
2702,21196,53978.62
2703,21120,53998.59
2704,21068,54018.57
2705,21044,54038.55
2706,21036,54058.52
2707,21036,54078.50
2708,21040,54098.48
2709,21044,54118.46
2710,21048,54138.43
2711,21056,54158.41
2712,21068,54178.39
2713,21080,54198.37
2714,21084,54218.34
2715,21092,54238.32
2716,21092,54258.30
2717,21092,54278.27
2718,21096,54298.25
2719,21096,54318.23
2720,21108,54338.21
2721,21120,54358.18
2722,21136,54378.16
2723,21152,54398.14
2724,21168,54418.12
2725,21184,54438.09
2726,21204,54458.07
2727,21216,54478.05
2728,21232,54498.02
2729,21248,54518.00
2730,21260,54537.98
2731,21272,54557.96
2732,21284,54577.93
2733,21292,54597.91
2734,21304,54617.89
2735,21312,54637.87
2736,21320,54657.84
2737,21320,54677.82
2738,21284,54697.80
2739,21212,54717.77
2740,21132,54737.75
2741,21052,54757.73
2742,20992,54777.71
2743,20956,54797.68
2744,20940,54817.66
2745,20944,54837.64
2746,20944,54857.62
2747,20952,54877.59
2748,20972,54897.57
2749,20988,54917.55
2750,21004,54937.53
2751,21020,54957.50
2752,21028,54977.48
2753,21036,54997.46
2754,21040,55017.43
2755,21044,55037.41
2756,21048,55057.39
2757,21056,55077.37
2758,21068,55097.34
2759,21080,55117.32
2760,21096,55137.30
2761,21116,55157.28
2762,21136,55177.25
2763,21156,55197.23
2764,21180,55217.21
2765,21200,55237.18
2766,21216,55257.16
2767,21236,55277.14
2768,21260,55297.12
2769,21280,55317.09
2770,21300,55337.07
2771,21312,55357.05
2772,21332,55377.03
2773,21344,55397.00
2774,21364,55416.98
2775,21388,55436.96
2776,21384,55456.93
2777,21344,55476.91
2778,21264,55496.89
2779,21176,55516.87
2780,21084,55536.84
2781,21016,55556.82
2782,20972,55576.80
2783,20948,55596.78
2784,20944,55616.75
2785,20944,55636.73
2786,20948,55656.71
2787,20952,55676.68
2788,20964,55696.66
2789,20980,55716.64
2790,20996,55736.62
2791,21008,55756.59
2792,21016,55776.57
2793,21016,55796.55
2794,21016,55816.53
2795,21020,55836.50
2796,21028,55856.48
2797,21036,55876.46
2798,21048,55896.43
2799,21060,55916.41
2800,21080,55936.39
2801,21100,55956.37
2802,21124,55976.34
2803,21144,55996.32
2804,21164,56016.30
2805,21184,56036.28
2806,21204,56056.25
2807,21220,56076.23
2808,21232,56096.21
2809,21244,56116.18
2810,21264,56136.16
2811,21280,56156.14
2812,21292,56176.12
2813,21280,56196.09
2814,21220,56216.07
2815,21148,56236.05
2816,21060,56256.03
2817,20992,56276.00
2818,20944,56295.98
2819,20916,56315.96
2820,20912,56335.93
2821,20912,56355.91
2822,20916,56375.89
2823,20928,56395.87
2824,20940,56415.84
2825,20960,56435.82
2826,20980,56455.80
2827,20988,56475.78
2828,20996,56495.75
2829,21004,56515.73
2830,21000,56535.71
2831,21004,56555.68
2832,21004,56575.66
2833,21012,56595.64
2834,21024,56615.62
2835,21044,56635.59
2836,21064,56655.57
2837,21080,56675.55
2838,21104,56695.53
2839,21128,56715.50
2840,21144,56735.48
2841,21172,56755.46
2842,21192,56775.43
2843,21212,56795.41
2844,21236,56815.39
2845,21252,56835.37
2846,21272,56855.34
2847,21288,56875.32
2848,21312,56895.30
2849,21312,56915.28
2850,21276,56935.25
2851,21208,56955.23
2852,21124,56975.21
2853,21052,56995.19
2854,20996,57015.16
2855,20964,57035.14
2856,20956,57055.12
2857,20952,57075.09
2858,20956,57095.07
2859,20960,57115.05
2860,20968,57135.03
2861,20984,57155.00
2862,20996,57174.98
2863,21012,57194.96
2864,21020,57214.94
2865,21032,57234.91
2866,21036,57254.89
2867,21040,57274.87
2868,21048,57294.84
2869,21052,57314.82
2870,21060,57334.80
2871,21072,57354.78
2872,21088,57374.75
2873,21104,57394.73
2874,21124,57414.71
2875,21144,57434.69
2876,21164,57454.66
2877,21184,57474.64
2878,21200,57494.62
2879,21220,57514.59
2880,21232,57534.57
2881,21248,57554.55
2882,21272,57574.53
2883,21284,57594.50
2884,21300,57614.48
2885,21316,57634.46
2886,21336,57654.44
2887,21348,57674.41
2888,21328,57694.39
2889,21280,57714.37
2890,21204,57734.34
2891,21124,57754.32
2892,21052,57774.30
2893,21012,57794.28
2894,20988,57814.25
2895,20980,57834.23
2896,20980,57854.21
2897,20976,57874.19
2898,20980,57894.16
2899,20984,57914.14
2900,20996,57934.12
2901,21004,57954.09
2902,21012,57974.07
2903,21016,57994.05
2904,21020,58014.03
2905,21016,58034.00
2906,21012,58053.98
2907,21020,58073.96
2908,21032,58093.94
2909,21044,58113.91
2910,21056,58133.89
2911,21072,58153.87
2912,21092,58173.84
2913,21108,58193.82
2914,21124,58213.80
2915,21144,58233.78
2916,21160,58253.75
2917,21176,58273.73
2918,21188,58293.71
2919,21200,58313.69
2920,21212,58333.66
2921,21228,58353.64
2922,21248,58373.62
2923,21264,58393.59
2924,21276,58413.57
2925,21292,58433.55
2926,21308,58453.53
2927,21328,58473.50
2928,21344,58493.48
2929,21348,58513.46
2930,21316,58533.44
2931,21248,58553.41
2932,21160,58573.39
2933,21076,58593.37
2934,21016,58613.34
2935,20972,58633.32
2936,20952,58653.30
2937,20944,58673.28
2938,20944,58693.25
2939,20940,58713.23
2940,20940,58733.21
2941,20948,58753.19
2942,20956,58773.16
2943,20972,58793.14
2944,20984,58813.12
2945,20992,58833.10
2946,21004,58853.07
2947,21008,58873.05
2948,21016,58893.03
2949,21024,58913.00
2950,21032,58932.98
2951,21044,58952.96
2952,21056,58972.94
2953,21076,58992.91
2954,21092,59012.89
2955,21116,59032.87
2956,21140,59052.85
2957,21156,59072.82
2958,21176,59092.80
2959,21196,59112.78
2960,21216,59132.75
2961,21228,59152.73
2962,21248,59172.71
2963,21264,59192.69
2964,21280,59212.66
2965,21292,59232.64
2966,21304,59252.62
2967,21320,59272.60
2968,21332,59292.57
2969,21348,59312.55
2970,21364,59332.53
2971,21380,59352.50
2972,21396,59372.48
2973,21404,59392.46
2974,21368,59412.44
2975,21304,59432.41
2976,21216,59452.39
2977,21136,59472.37
2978,21068,59492.35
2979,21028,59512.32
2980,21008,59532.30
2981,21000,59552.28
2982,21000,59572.25
2983,21000,59592.23
2984,21000,59612.21
2985,21008,59632.19
2986,21016,59652.16
2987,21024,59672.14
2988,21032,59692.12
2989,21036,59712.10
2990,21040,59732.07
2991,21040,59752.05
2992,21040,59772.03
2993,21044,59792.00
2994,21052,59811.98
2995,21060,59831.96
2996,21072,59851.94
2997,21092,59871.91
2998,21108,59891.89
2999,21128,59911.87
