Sample_Index,IR_Value,Timestamp_ms
0,20356,0.00
1,20636,19.98
2,20876,39.95
3,21264,59.93
4,21736,79.91
5,22216,99.89
6,22596,119.86
7,22924,139.84
8,23240,159.82
9,23516,179.80
10,23720,199.77
11,23864,219.75
12,23952,239.73
13,23996,259.70
14,24008,279.68
15,24024,299.66
16,24020,319.64
17,24012,339.61
18,24008,359.59
19,24008,379.57
20,24020,399.55
21,24040,419.52
22,24048,439.50
23,24052,459.48
24,24048,479.45
25,24048,499.43
26,24044,519.41
27,24032,539.39
28,24024,559.36
29,24020,579.34
30,24016,599.32
31,24008,619.30
32,24008,639.27
33,24008,659.25
34,24000,679.23
35,24004,699.20
36,24004,719.18
37,24000,739.16
38,24000,759.14
39,23996,779.11
40,23996,799.09
41,23988,819.07
42,23988,839.05
43,23984,859.02
44,23984,879.00
45,23988,898.98
46,23992,918.95
47,23996,938.93
48,24000,958.91
49,24004,978.89
50,24004,998.86
51,23992,1018.84
52,23972,1038.82
53,23940,1058.80
54,23904,1078.77
55,23872,1098.75
56,23852,1118.73
57,23840,1138.70
58,23832,1158.68
59,23828,1178.66
60,23824,1198.64
61,23820,1218.61
62,23820,1238.59
63,23816,1258.57
64,23804,1278.55
65,23788,1298.52
66,23776,1318.50
67,23764,1338.48
68,23752,1358.45
69,23752,1378.43
70,23748,1398.41
71,23748,1418.39
72,23760,1438.36
73,23764,1458.34
74,23776,1478.32
75,23784,1498.30
76,23800,1518.27
77,23804,1538.25
78,23808,1558.23
79,23816,1578.20
80,23824,1598.18
81,23832,1618.16
82,23844,1638.14
83,23856,1658.11
84,23864,1678.09
85,23880,1698.07
86,23888,1718.05
87,23896,1738.02
88,23892,1758.00
89,23872,1777.98
90,23848,1797.96
91,23824,1817.93
92,23800,1837.91
93,23784,1857.89
94,23772,1877.86
95,23772,1897.84
96,23776,1917.82
97,23780,1937.80
98,23792,1957.77
99,23804,1977.75
100,23812,1997.73
101,23812,2017.71
102,23812,2037.68
103,23812,2057.66
104,23804,2077.64
105,23800,2097.61
106,23800,2117.59
107,23800,2137.57
108,23800,2157.55
109,23808,2177.52
110,23808,2197.50
111,23816,2217.48
112,23828,2237.46
113,23836,2257.43
114,23848,2277.41
115,23864,2297.39
116,23872,2317.36
117,23880,2337.34
118,23888,2357.32
119,23892,2377.30
120,23900,2397.27
121,23904,2417.25
122,23888,2437.23
123,23860,2457.21
124,23824,2477.18
125,23784,2497.16
126,23748,2517.14
127,23720,2537.11
128,23700,2557.09
129,23688,2577.07
130,23676,2597.05
131,23668,2617.02
132,23676,2637.00
133,23680,2656.98
134,23680,2676.96
135,23672,2696.93
136,23660,2716.91
137,23644,2736.89
138,23632,2756.86
139,23620,2776.84
140,23616,2796.82
141,23612,2816.80
142,23612,2836.77
143,23616,2856.75
144,23624,2876.73
145,23632,2896.71
146,23640,2916.68
147,23644,2936.66
148,23656,2956.64
149,23660,2976.61
150,23664,2996.59
151,23668,3016.57
152,23676,3036.55
153,23680,3056.52
154,23692,3076.50
155,23688,3096.48
156,23672,3116.46
157,23632,3136.43
158,23580,3156.41
159,23528,3176.39
160,23472,3196.36
161,23436,3216.34
162,23416,3236.32
163,23400,3256.30
164,23396,3276.27
165,23392,3296.25
166,23392,3316.23
167,23400,3336.21
168,23396,3356.18
169,23396,3376.16
170,23388,3396.14
171,23380,3416.11
172,23368,3436.09
173,23360,3456.07
174,23360,3476.05
175,23364,3496.02
176,23372,3516.00
177,23380,3535.98
178,23388,3555.96
179,23400,3575.93
180,23412,3595.91
181,23420,3615.89
182,23428,3635.86
183,23436,3655.84
184,23444,3675.82
185,23448,3695.80
186,23460,3715.77
187,23468,3735.75
188,23476,3755.73
189,23492,3775.71
190,23500,3795.68
191,23512,3815.66
192,23508,3835.64
193,23480,3855.61
194,23432,3875.59
195,23376,3895.57
196,23320,3915.55
197,23280,3935.52
198,23252,3955.50
199,23236,3975.48
200,23232,3995.46
201,23228,4015.43
202,23224,4035.41
203,23232,4055.39
204,23240,4075.36
205,23240,4095.34
206,23240,4115.32
207,23236,4135.30
208,23228,4155.27
209,23228,4175.25
210,23220,4195.23
211,23224,4215.21
212,23228,4235.18
213,23240,4255.16
214,23256,4275.14
215,23268,4295.11
216,23280,4315.09
217,23296,4335.07
218,23304,4355.05
219,23316,4375.02
220,23332,4395.00
221,23340,4414.98
222,23348,4434.96
223,23356,4454.93
224,23364,4474.91
225,23372,4494.89
226,23384,4514.86
227,23396,4534.84
228,23404,4554.82
229,23416,4574.80
230,23432,4594.77
231,23440,4614.75
232,23456,4634.73
233,23456,4654.71
234,23444,4674.68
235,23404,4694.66
236,23352,4714.64
237,23292,4734.61
238,23236,4754.59
239,23200,4774.57
240,23176,4794.55
241,23172,4814.52
242,23168,4834.50
243,23172,4854.48
244,23176,4874.46
245,23184,4894.43
246,23188,4914.41
247,23188,4934.39
248,23188,4954.36
249,23184,4974.34
250,23172,4994.32
251,23172,5014.30
252,23172,5034.27
253,23176,5054.25
254,23184,5074.23
255,23200,5094.21
256,23208,5114.18
257,23224,5134.16
258,23240,5154.14
259,23256,5174.11
260,23264,5194.09
261,23276,5214.07
262,23288,5234.05
263,23304,5254.02
264,23312,5274.00
265,23320,5293.98
266,23328,5313.96
267,23336,5333.93
268,23348,5353.91
269,23360,5373.89
270,23372,5393.87
271,23384,5413.84
272,23396,5433.82
273,23408,5453.80
274,23420,5473.77
275,23432,5493.75
276,23440,5513.73
277,23448,5533.71
278,23444,5553.68
279,23416,5573.66
280,23372,5593.64
281,23316,5613.62
282,23264,5633.59
283,23220,5653.57
284,23196,5673.55
285,23188,5693.52
286,23188,5713.50
287,23196,5733.48
288,23208,5753.46
289,23220,5773.43
290,23232,5793.41
291,23244,5813.39
292,23240,5833.37
293,23232,5853.34
294,23224,5873.32
295,23212,5893.30
296,23208,5913.27
297,23208,5933.25
298,23208,5953.23
299,23220,5973.21
300,23232,5993.18
301,23244,6013.16
302,23256,6033.14
303,23268,6053.12
304,23276,6073.09
305,23288,6093.07
306,23296,6113.05
307,23300,6133.02
308,23304,6153.00
309,23312,6172.98
310,23316,6192.96
311,23324,6212.93
312,23332,6232.91
313,23340,6252.89
314,23352,6272.87
315,23360,6292.84
316,23372,6312.82
317,23380,6332.80
318,23384,6352.77
319,23368,6372.75
320,23332,6392.73
321,23280,6412.71
322,23224,6432.68
323,23172,6452.66
324,23144,6472.64
325,23128,6492.62
326,23124,6512.59
327,23124,6532.57
328,23132,6552.55
329,23140,6572.52
330,23152,6592.50
331,23152,6612.48
332,23152,6632.46
333,23144,6652.43
334,23136,6672.41
335,23124,6692.39
336,23116,6712.37
337,23116,6732.34
338,23124,6752.32
339,23132,6772.30
340,23148,6792.27
341,23156,6812.25
342,23168,6832.23
343,23184,6852.21
344,23196,6872.18
345,23204,6892.16
346,23212,6912.14
347,23220,6932.12
348,23228,6952.09
349,23232,6972.07
350,23240,6992.05
351,23244,7012.02
352,23256,7032.00
353,23264,7051.98
354,23272,7071.96
355,23280,7091.93
356,23288,7111.91
357,23284,7131.89
358,23252,7151.87
359,23204,7171.84
360,23140,7191.82
361,23080,7211.80
362,23036,7231.77
363,23012,7251.75
364,23000,7271.73
365,23000,7291.71
366,23004,7311.68
367,23012,7331.66
368,23020,7351.64
369,23028,7371.62
370,23032,7391.59
371,23028,7411.57
372,23020,7431.55
373,23016,7451.52
374,23004,7471.50
375,23008,7491.48
376,23008,7511.46
377,23020,7531.43
378,23032,7551.41
379,23044,7571.39
380,23056,7591.37
381,23072,7611.34
382,23080,7631.32
383,23092,7651.30
384,23100,7671.27
385,23108,7691.25
386,23116,7711.23
387,23128,7731.21
388,23132,7751.18
389,23140,7771.16
390,23148,7791.14
391,23156,7811.12
392,23164,7831.09
393,23176,7851.07
394,23184,7871.05
395,23188,7891.02
396,23180,7911.00
397,23156,7930.98
398,23104,7950.96
399,23044,7970.93
400,22996,7990.91
401,22960,8010.89
402,22936,8030.87
403,22932,8050.84
404,22932,8070.82
405,22936,8090.80
406,22944,8110.77
407,22952,8130.75
408,22960,8150.73
409,22964,8170.71
410,22960,8190.68
411,22956,8210.66
412,22948,8230.64
413,22948,8250.62
414,22944,8270.59
415,22948,8290.57
416,22956,8310.55
417,22972,8330.52
418,22984,8350.50
419,22996,8370.48
420,23008,8390.46
421,23020,8410.43
422,23028,8430.41
423,23036,8450.39
424,23048,8470.37
425,23056,8490.34
426,23064,8510.32
427,23068,8530.30
428,23080,8550.27
429,23088,8570.25
430,23096,8590.23
431,23108,8610.21
432,23120,8630.18
433,23132,8650.16
434,23144,8670.14
435,23144,8690.12
436,23128,8710.09
437,23096,8730.07
438,23040,8750.05
439,22984,8770.02
440,22940,8790.00
441,22912,8809.98
442,22904,8829.96
443,22900,8849.93
444,22904,8869.91
445,22912,8889.89
446,22924,8909.87
447,22940,8929.84
448,22944,8949.82
449,22944,8969.80
450,22936,8989.78
451,22932,9009.75
452,22924,9029.73
453,22920,9049.71
454,22920,9069.68
455,22932,9089.66
456,22940,9109.64
457,22952,9129.62
458,22968,9149.59
459,22976,9169.57
460,22988,9189.55
461,23000,9209.53
462,23008,9229.50
463,23016,9249.48
464,23024,9269.46
465,23032,9289.43
466,23036,9309.41
467,23044,9329.39
468,23048,9349.37
469,23060,9369.34
470,23064,9389.32
471,23072,9409.30
472,23092,9429.28
473,23096,9449.25
474,23108,9469.23
475,23108,9489.21
476,23080,9509.18
477,23032,9529.16
478,22976,9549.14
479,22924,9569.12
480,22888,9589.09
481,22876,9609.07
482,22872,9629.05
483,22876,9649.03
484,22884,9669.00
485,22900,9688.98
486,22912,9708.96
487,22924,9728.93
488,22920,9748.91
489,22916,9768.89
490,22904,9788.87
491,22892,9808.84
492,22880,9828.82
493,22876,9848.80
494,22884,9868.78
495,22892,9888.75
496,22904,9908.73
497,22912,9928.71
498,22924,9948.68
499,22932,9968.66
500,22940,9988.64
501,22948,10008.62
502,22956,10028.59
503,22964,10048.57
504,22968,10068.55
505,22976,10088.53
506,22980,10108.50
507,22984,10128.48
508,22992,10148.46
509,23000,10168.43
510,23008,10188.41
511,23020,10208.39
512,23024,10228.37
513,23028,10248.34
514,23008,10268.32
515,22968,10288.30
516,22908,10308.28
517,22848,10328.25
518,22808,10348.23
519,22788,10368.21
520,22776,10388.18
521,22780,10408.16
522,22788,10428.14
523,22796,10448.12
524,22812,10468.09
525,22824,10488.07
526,22836,10508.05
527,22836,10528.03
528,22832,10548.00
529,22820,10567.98
530,22816,10587.96
531,22812,10607.93
532,22816,10627.91
533,22828,10647.89
534,22836,10667.87
535,22848,10687.84
536,22864,10707.82
537,22876,10727.80
538,22888,10747.78
539,22900,10767.75
540,22908,10787.73
541,22912,10807.71
542,22920,10827.68
543,22928,10847.66
544,22928,10867.64
545,22940,10887.62
546,22944,10907.59
547,22960,10927.57
548,22968,10947.55
549,22980,10967.53
550,22992,10987.50
551,23000,11007.48
552,23004,11027.46
553,22988,11047.43
554,22936,11067.41
555,22876,11087.39
556,22816,11107.37
557,22776,11127.34
558,22756,11147.32
559,22748,11167.30
560,22752,11187.28
561,22760,11207.25
562,22768,11227.23
563,22780,11247.21
564,22792,11267.18
565,22804,11287.16
566,22808,11307.14
567,22804,11327.12
568,22800,11347.09
569,22796,11367.07
570,22796,11387.05
571,22796,11407.03
572,22808,11427.00
573,22820,11446.98
574,22832,11466.96
575,22844,11486.93
576,22856,11506.91
577,22864,11526.89
578,22876,11546.87
579,22884,11566.84
580,22892,11586.82
581,22900,11606.80
582,22908,11626.78
583,22912,11646.75
584,22916,11666.73
585,22924,11686.71
586,22936,11706.68
587,22948,11726.66
588,22956,11746.64
589,22968,11766.62
590,22980,11786.59
591,22976,11806.57
592,22940,11826.55
593,22880,11846.53
594,22820,11866.50
595,22764,11886.48
596,22728,11906.46
597,22720,11926.43
598,22720,11946.41
599,22728,11966.39
600,22740,11986.37
601,22756,12006.34
602,22772,12026.32
603,22784,12046.30
604,22792,12066.28
605,22788,12086.25
606,22780,12106.23
607,22780,12126.21
608,22776,12146.18
609,22776,12166.16
610,22788,12186.14
611,22800,12206.12
612,22816,12226.09
613,22832,12246.07
614,22844,12266.05
615,22856,12286.03
616,22868,12306.00
617,22872,12325.98
618,22876,12345.96
619,22884,12365.93
620,22888,12385.91
621,22896,12405.89
622,22904,12425.87
623,22912,12445.84
624,22920,12465.82
625,22932,12485.80
626,22936,12505.78
627,22944,12525.75
628,22924,12545.73
629,22880,12565.71
630,22824,12585.69
631,22768,12605.66
632,22724,12625.64
633,22708,12645.62
634,22704,12665.59
635,22712,12685.57
636,22728,12705.55
637,22748,12725.53
638,22768,12745.50
639,22784,12765.48
640,22800,12785.46
641,22800,12805.44
642,22796,12825.41
643,22788,12845.39
644,22780,12865.37
645,22780,12885.34
646,22784,12905.32
647,22796,12925.30
648,22812,12945.28
649,22828,12965.25
650,22844,12985.23
651,22856,13005.21
652,22872,13025.19
653,22880,13045.16
654,22888,13065.14
655,22896,13085.12
656,22900,13105.09
657,22904,13125.07
658,22904,13145.05
659,22908,13165.03
660,22908,13185.00
661,22916,13204.98
662,22920,13224.96
663,22912,13244.94
664,22880,13264.91
665,22828,13284.89
666,22768,13304.87
667,22712,13324.84
668,22676,13344.82
669,22660,13364.80
670,22656,13384.78
671,22672,13404.75
672,22680,13424.73
673,22696,13444.71
674,22716,13464.69
675,22732,13484.66
676,22740,13504.64
677,22740,13524.62
678,22736,13544.59
679,22728,13564.57
680,22724,13584.55
681,22728,13604.53
682,22736,13624.50
683,22756,13644.48
684,22768,13664.46
685,22784,13684.44
686,22804,13704.41
687,22824,13724.39
688,22836,13744.37
689,22848,13764.34
690,22856,13784.32
691,22868,13804.30
692,22872,13824.28
693,22884,13844.25
694,22884,13864.23
695,22892,13884.21
696,22904,13904.19
697,22912,13924.16
698,22924,13944.14
699,22936,13964.12
700,22944,13984.09
701,22936,14004.07
702,22900,14024.05
703,22836,14044.03
704,22756,14064.00
705,22684,14083.98
706,22640,14103.96
707,22616,14123.94
708,22612,14143.91
709,22624,14163.89
710,22628,14183.87
711,22640,14203.84
712,22648,14223.82
713,22664,14243.80
714,22672,14263.78
715,22676,14283.75
716,22672,14303.73
717,22668,14323.71
718,22660,14343.69
719,22664,14363.66
720,22668,14383.64
721,22680,14403.62
722,22692,14423.59
723,22704,14443.57
724,22724,14463.55
725,22740,14483.53
726,22752,14503.50
727,22764,14523.48
728,22772,14543.46
729,22780,14563.44
730,22788,14583.41
731,22796,14603.39
732,22800,14623.37
733,22808,14643.34
734,22816,14663.32
735,22824,14683.30
736,22832,14703.28
737,22844,14723.25
738,22852,14743.23
739,22868,14763.21
740,22876,14783.19
741,22868,14803.16
742,22832,14823.14
743,22772,14843.12
744,22692,14863.09
745,22628,14883.07
746,22588,14903.05
747,22576,14923.03
748,22576,14943.00
749,22584,14962.98
750,22588,14982.96
751,22600,15002.94
752,22616,15022.91
753,22628,15042.89
754,22640,15062.87
755,22648,15082.84
756,22644,15102.82
757,22644,15122.80
758,22640,15142.78
759,22640,15162.75
760,22648,15182.73
761,22660,15202.71
762,22676,15222.69
763,22696,15242.66
764,22712,15262.64
765,22732,15282.62
766,22748,15302.59
767,22760,15322.57
768,22772,15342.55
769,22784,15362.53
770,22792,15382.50
771,22804,15402.48
772,22812,15422.46
773,22820,15442.44
774,22836,15462.41
775,22844,15482.39
776,22852,15502.37
777,22864,15522.34
778,22872,15542.32
779,22880,15562.30
780,22892,15582.28
781,22904,15602.25
782,22916,15622.23
783,22932,15642.21
784,22944,15662.19
785,22952,15682.16
786,22940,15702.14
787,22884,15722.12
788,22808,15742.09
789,22724,15762.07
790,22664,15782.05
791,22624,15802.03
792,22612,15822.00
793,22612,15841.98
794,22620,15861.96
795,22632,15881.94
796,22648,15901.91
797,22664,15921.89
798,22676,15941.87
799,22684,15961.84
800,22676,15981.82
801,22668,16001.80
802,22664,16021.78
803,22660,16041.75
804,22660,16061.73
805,22664,16081.71
806,22680,16101.69
807,22696,16121.66
808,22712,16141.64
809,22732,16161.62
810,22744,16181.60
811,22764,16201.57
812,22776,16221.55
813,22784,16241.53
814,22788,16261.50
815,22796,16281.48
816,22804,16301.46
817,22808,16321.44
818,22816,16341.41
819,22820,16361.39
820,22832,16381.37
821,22844,16401.35
822,22856,16421.32
823,22864,16441.30
824,22876,16461.28
825,22876,16481.25
826,22852,16501.23
827,22804,16521.21
828,22740,16541.19
829,22680,16561.16
830,22632,16581.14
831,22612,16601.12
832,22608,16621.10
833,22620,16641.07
834,22632,16661.05
835,22656,16681.03
836,22676,16701.00
837,22692,16720.98
838,22696,16740.96
839,22700,16760.94
840,22692,16780.91
841,22680,16800.89
842,22672,16820.87
843,22672,16840.85
844,22676,16860.82
845,22688,16880.80
846,22704,16900.78
847,22720,16920.75
848,22736,16940.73
849,22752,16960.71
850,22768,16980.69
851,22776,17000.66
852,22788,17020.64
853,22796,17040.62
854,22804,17060.60
855,22812,17080.57
856,22816,17100.55
857,22828,17120.53
858,22836,17140.50
859,22844,17160.48
860,22856,17180.46
861,22868,17200.44
862,22876,17220.41
863,22884,17240.39
864,22880,17260.37
865,22832,17280.35
866,22764,17300.32
867,22692,17320.30
868,22624,17340.28
869,22588,17360.25
870,22572,17380.23
871,22576,17400.21
872,22588,17420.19
873,22600,17440.16
874,22612,17460.14
875,22628,17480.12
876,22640,17500.10
877,22648,17520.07
878,22644,17540.05
879,22636,17560.03
880,22628,17580.00
881,22624,17599.98
882,22620,17619.96
883,22628,17639.94
884,22640,17659.91
885,22660,17679.89
886,22672,17699.87
887,22692,17719.85
888,22704,17739.82
889,22716,17759.80
890,22724,17779.78
891,22732,17799.75
892,22744,17819.73
893,22752,17839.71
894,22760,17859.69
895,22768,17879.66
896,22772,17899.64
897,22780,17919.62
898,22788,17939.60
899,22800,17959.57
900,22808,17979.55
901,22824,17999.53
902,22836,18019.50
903,22844,18039.48
904,22840,18059.46
905,22804,18079.44
906,22740,18099.41
907,22660,18119.39
908,22596,18139.37
909,22556,18159.35
910,22536,18179.32
911,22536,18199.30
912,22544,18219.28
913,22556,18239.25
914,22568,18259.23
915,22584,18279.21
916,22600,18299.19
917,22608,18319.16
918,22612,18339.14
919,22608,18359.12
920,22604,18379.10
921,22596,18399.07
922,22600,18419.05
923,22600,18439.03
924,22616,18459.00
925,22632,18478.98
926,22644,18498.96
927,22660,18518.94
928,22676,18538.91
929,22688,18558.89
930,22704,18578.87
931,22716,18598.85
932,22724,18618.82
933,22728,18638.80
934,22740,18658.78
935,22748,18678.75
936,22752,18698.73
937,22760,18718.71
938,22768,18738.69
939,22780,18758.66
940,22788,18778.64
941,22800,18798.62
942,22812,18818.60
943,22824,18838.57
944,22840,18858.55
945,22848,18878.53
946,22848,18898.50
947,22812,18918.48
948,22748,18938.46
949,22672,18958.44
950,22604,18978.41
951,22556,18998.39
952,22540,19018.37
953,22540,19038.35
954,22552,19058.32
955,22564,19078.30
956,22584,19098.28
957,22604,19118.25
958,22616,19138.23
959,22624,19158.21
960,22624,19178.19
961,22620,19198.16
962,22612,19218.14
963,22604,19238.12
964,22596,19258.10
965,22600,19278.07
966,22612,19298.05
967,22628,19318.03
968,22640,19338.00
969,22656,19357.98
970,22668,19377.96
971,22680,19397.94
972,22688,19417.91
973,22700,19437.89
974,22712,19457.87
975,22720,19477.85
976,22724,19497.82
977,22728,19517.80
978,22732,19537.78
979,22736,19557.76
980,22740,19577.73
981,22748,19597.71
982,22760,19617.69
983,22768,19637.66
984,22780,19657.64
985,22780,19677.62
986,22752,19697.60
987,22692,19717.57
988,22624,19737.55
989,22560,19757.53
990,22516,19777.51
991,22496,19797.48
992,22496,19817.46
993,22508,19837.44
994,22524,19857.41
995,22548,19877.39
996,22572,19897.37
997,22588,19917.35
998,22600,19937.32
999,22604,19957.30
1000,22596,19977.28
1001,22584,19997.26
1002,22576,20017.23
1003,22572,20037.21
1004,22584,20057.19
1005,22592,20077.16
1006,22612,20097.14
1007,22636,20117.12
1008,22652,20137.10
1009,22664,20157.07
1010,22676,20177.05
1011,22688,20197.03
1012,22696,20217.01
1013,22704,20236.98
1014,22712,20256.96
1015,22716,20276.94
1016,22720,20296.91
1017,22724,20316.89
1018,22728,20336.87
1019,22732,20356.85
1020,22740,20376.82
1021,22748,20396.80
1022,22760,20416.78
1023,22776,20436.76
1024,22784,20456.73
1025,22772,20476.71
1026,22736,20496.69
1027,22668,20516.66
1028,22580,20536.64
1029,22512,20556.62
1030,22468,20576.60
1031,22448,20596.57
1032,22448,20616.55
1033,22460,20636.53
1034,22472,20656.51
1035,22492,20676.48
1036,22504,20696.46
1037,22524,20716.44
1038,22532,20736.41
1039,22532,20756.39
1040,22532,20776.37
1041,22524,20796.35
1042,22520,20816.32
1043,22520,20836.30
1044,22528,20856.28
1045,22540,20876.26
1046,22556,20896.23
1047,22576,20916.21
1048,22592,20936.19
1049,22608,20956.16
1050,22624,20976.14
1051,22636,20996.12
1052,22644,21016.10
1053,22652,21036.07
1054,22664,21056.05
1055,22672,21076.03
1056,22680,21096.01
1057,22684,21115.98
1058,22684,21135.96
1059,22696,21155.94
1060,22700,21175.91
1061,22708,21195.89
1062,22716,21215.87
1063,22728,21235.85
1064,22736,21255.82
1065,22732,21275.80
1066,22696,21295.78
1067,22628,21315.76
1068,22548,21335.73
1069,22480,21355.71
1070,22436,21375.69
1071,22416,21395.66
1072,22424,21415.64
1073,22432,21435.62
1074,22452,21455.60
1075,22468,21475.57
1076,22488,21495.55
1077,22512,21515.53
1078,22520,21535.51
1079,22524,21555.48
1080,22524,21575.46
1081,22516,21595.44
1082,22512,21615.41
1083,22508,21635.39
1084,22516,21655.37
1085,22532,21675.35
1086,22548,21695.32
1087,22568,21715.30
1088,22592,21735.28
1089,22612,21755.26
1090,22620,21775.23
1091,22636,21795.21
1092,22648,21815.19
1093,22660,21835.16
1094,22668,21855.14
1095,22676,21875.12
1096,22684,21895.10
1097,22692,21915.07
1098,22696,21935.05
1099,22704,21955.03
1100,22712,21975.01
1101,22720,21994.98
1102,22736,22014.96
1103,22744,22034.94
1104,22752,22054.91
1105,22756,22074.89
1106,22732,22094.87
1107,22676,22114.85
1108,22596,22134.82
1109,22528,22154.80
1110,22472,22174.78
1111,22444,22194.76
1112,22440,22214.73
1113,22444,22234.71
1114,22460,22254.69
1115,22476,22274.66
1116,22496,22294.64
1117,22516,22314.62
1118,22532,22334.60
1119,22532,22354.57
1120,22524,22374.55
1121,22512,22394.53
1122,22500,22414.51
1123,22496,22434.48
1124,22504,22454.46
1125,22516,22474.44
1126,22528,22494.41
1127,22544,22514.39
1128,22564,22534.37
1129,22580,22554.35
1130,22592,22574.32
1131,22600,22594.30
1132,22604,22614.28
1133,22612,22634.26
1134,22620,22654.23
1135,22624,22674.21
1136,22628,22694.19
1137,22640,22714.16
1138,22652,22734.14
1139,22660,22754.12
1140,22668,22774.10
1141,22672,22794.07
1142,22652,22814.05
1143,22604,22834.03
1144,22536,22854.01
1145,22476,22873.98
1146,22428,22893.96
1147,22404,22913.94
1148,22400,22933.91
1149,22408,22953.89
1150,22424,22973.87
1151,22440,22993.85
1152,22464,23013.82
1153,22476,23033.80
1154,22492,23053.78
1155,22488,23073.76
1156,22484,23093.73
1157,22472,23113.71
1158,22460,23133.69
1159,22456,23153.67
1160,22460,23173.64
1161,22476,23193.62
1162,22492,23213.60
1163,22508,23233.57
1164,22528,23253.55
1165,22544,23273.53
1166,22556,23293.51
1167,22568,23313.48
1168,22576,23333.46
1169,22588,23353.44
1170,22592,23373.42
1171,22604,23393.39
1172,22608,23413.37
1173,22616,23433.35
1174,22632,23453.32
1175,22640,23473.30
1176,22652,23493.28
1177,22660,23513.26
1178,22644,23533.23
1179,22600,23553.21
1180,22528,23573.19
1181,22452,23593.17
1182,22396,23613.14
1183,22360,23633.12
1184,22352,23653.10
1185,22352,23673.07
1186,22368,23693.05
1187,22384,23713.03
1188,22400,23733.01
1189,22420,23752.98
1190,22432,23772.96
1191,22436,23792.94
1192,22432,23812.92
1193,22420,23832.89
1194,22416,23852.87
1195,22408,23872.85
1196,22412,23892.82
1197,22420,23912.80
1198,22436,23932.78
1199,22456,23952.76
1200,22472,23972.73
1201,22484,23992.71
1202,22500,24012.69
1203,22508,24032.67
1204,22524,24052.64
1205,22532,24072.62
1206,22540,24092.60
1207,22544,24112.57
1208,22556,24132.55
1209,22564,24152.53
1210,22572,24172.51
1211,22580,24192.48
1212,22592,24212.46
1213,22604,24232.44
1214,22612,24252.42
1215,22616,24272.39
1216,22592,24292.37
1217,22540,24312.35
1218,22468,24332.32
1219,22404,24352.30
1220,22360,24372.28
1221,22336,24392.26
1222,22340,24412.23
1223,22352,24432.21
1224,22364,24452.19
1225,22380,24472.17
1226,22396,24492.14
1227,22416,24512.12
1228,22424,24532.10
1229,22428,24552.07
1230,22428,24572.05
1231,22424,24592.03
1232,22412,24612.01
1233,22412,24631.98
1234,22420,24651.96
1235,22432,24671.94
1236,22448,24691.92
1237,22460,24711.89
1238,22472,24731.87
1239,22488,24751.85
1240,22500,24771.82
1241,22516,24791.80
1242,22528,24811.78
1243,22540,24831.76
1244,22548,24851.73
1245,22556,24871.71
1246,22560,24891.69
1247,22564,24911.67
1248,22568,24931.64
1249,22580,24951.62
1250,22584,24971.60
1251,22596,24991.57
1252,22612,25011.55
1253,22624,25031.53
1254,22640,25051.51
1255,22648,25071.48
1256,22632,25091.46
1257,22580,25111.44
1258,22500,25131.42
1259,22424,25151.39
1260,22372,25171.37
1261,22340,25191.35
1262,22340,25211.32
1263,22348,25231.30
1264,22364,25251.28
1265,22380,25271.26
1266,22404,25291.23
1267,22420,25311.21
1268,22432,25331.19
1269,22436,25351.17
1270,22424,25371.14
1271,22420,25391.12
1272,22412,25411.10
1273,22412,25431.07
1274,22416,25451.05
1275,22428,25471.03
1276,22440,25491.01
1277,22456,25510.98
1278,22472,25530.96
1279,22492,25550.94
1280,22500,25570.92
1281,22508,25590.89
1282,22512,25610.87
1283,22512,25630.85
1284,22516,25650.82
1285,22520,25670.80
1286,22528,25690.78
1287,22536,25710.76
1288,22536,25730.73
1289,22548,25750.71
1290,22556,25770.69
1291,22564,25790.67
1292,22580,25810.64
1293,22592,25830.62
1294,22600,25850.60
1295,22580,25870.57
1296,22528,25890.55
1297,22460,25910.53
1298,22392,25930.51
1299,22336,25950.48
1300,22312,25970.46
1301,22308,25990.44
1302,22320,26010.42
1303,22332,26030.39
1304,22352,26050.37
1305,22376,26070.35
1306,22400,26090.32
1307,22412,26110.30
1308,22412,26130.28
1309,22412,26150.26
1310,22404,26170.23
1311,22396,26190.21
1312,22396,26210.19
1313,22404,26230.17
1314,22416,26250.14
1315,22432,26270.12
1316,22452,26290.10
1317,22464,26310.07
1318,22480,26330.05
1319,22496,26350.03
1320,22504,26370.01
1321,22516,26389.98
1322,22524,26409.96
1323,22528,26429.94
1324,22536,26449.92
1325,22540,26469.89
1326,22552,26489.87
1327,22556,26509.85
1328,22564,26529.82
1329,22572,26549.80
1330,22580,26569.78
1331,22592,26589.76
1332,22596,26609.73
1333,22608,26629.71
1334,22620,26649.69
1335,22632,26669.67
1336,22628,26689.64
1337,22588,26709.62
1338,22512,26729.60
1339,22432,26749.58
1340,22360,26769.55
1341,22312,26789.53
1342,22296,26809.51
1343,22300,26829.48
1344,22312,26849.46
1345,22324,26869.44
1346,22340,26889.42
1347,22356,26909.39
1348,22376,26929.37
1349,22388,26949.35
1350,22388,26969.33
1351,22384,26989.30
1352,22380,27009.28
1353,22380,27029.26
1354,22380,27049.23
1355,22388,27069.21
1356,22400,27089.19
1357,22416,27109.17
1358,22432,27129.14
1359,22452,27149.12
1360,22472,27169.10
1361,22488,27189.08
1362,22504,27209.05
1363,22512,27229.03
1364,22520,27249.01
1365,22532,27268.98
1366,22536,27288.96
1367,22544,27308.94
1368,22552,27328.92
1369,22560,27348.89
1370,22564,27368.87
1371,22572,27388.85
1372,22580,27408.83
1373,22588,27428.80
1374,22600,27448.78
1375,22612,27468.76
1376,22628,27488.73
1377,22640,27508.71
1378,22648,27528.69
1379,22648,27548.67
1380,22612,27568.64
1381,22544,27588.62
1382,22464,27608.60
1383,22384,27628.58
1384,22336,27648.55
1385,22312,27668.53
1386,22312,27688.51
1387,22328,27708.48
1388,22344,27728.46
1389,22364,27748.44
1390,22388,27768.42
1391,22404,27788.39
1392,22416,27808.37
1393,22420,27828.35
1394,22420,27848.33
1395,22412,27868.30
1396,22408,27888.28
1397,22408,27908.26
1398,22416,27928.23
1399,22424,27948.21
1400,22444,27968.19
1401,22460,27988.17
1402,22480,28008.14
1403,22496,28028.12
1404,22512,28048.10
1405,22528,28068.08
1406,22540,28088.05
1407,22552,28108.03
1408,22568,28128.01
1409,22572,28147.98
1410,22576,28167.96
1411,22588,28187.94
1412,22592,28207.92
1413,22596,28227.89
1414,22604,28247.87
1415,22608,28267.85
1416,22616,28287.83
1417,22624,28307.80
1418,22632,28327.78
1419,22648,28347.76
1420,22660,28367.73
1421,22676,28387.71
1422,22680,28407.69
1423,22672,28427.67
1424,22628,28447.64
1425,22552,28467.62
1426,22468,28487.60
1427,22400,28507.58
1428,22360,28527.55
1429,22344,28547.53
1430,22348,28567.51
1431,22368,28587.48
1432,22388,28607.46
1433,22416,28627.44
1434,22444,28647.42
1435,22460,28667.39
1436,22472,28687.37
1437,22468,28707.35
1438,22452,28727.33
1439,22436,28747.30
1440,22428,28767.28
1441,22424,28787.26
1442,22428,28807.23
1443,22444,28827.21
1444,22460,28847.19
1445,22480,28867.17
1446,22496,28887.14
1447,22516,28907.12
1448,22528,28927.10
1449,22540,28947.08
1450,22548,28967.05
1451,22560,28987.03
1452,22568,29007.01
1453,22576,29026.98
1454,22580,29046.96
1455,22584,29066.94
1456,22592,29086.92
1457,22600,29106.89
1458,22608,29126.87
1459,22612,29146.85
1460,22620,29166.83
1461,22636,29186.80
1462,22636,29206.78
1463,22616,29226.76
1464,22556,29246.73
1465,22480,29266.71
1466,22404,29286.69
1467,22352,29306.67
1468,22316,29326.64
1469,22312,29346.62
1470,22324,29366.60
1471,22340,29386.58
1472,22356,29406.55
1473,22380,29426.53
1474,22408,29446.51
1475,22420,29466.48
1476,22428,29486.46
1477,22420,29506.44
1478,22408,29526.42
1479,22404,29546.39
1480,22396,29566.37
1481,22400,29586.35
1482,22412,29606.33
1483,22428,29626.30
1484,22448,29646.28
1485,22468,29666.26
1486,22488,29686.23
1487,22500,29706.21
1488,22520,29726.19
1489,22532,29746.17
1490,22540,29766.14
1491,22544,29786.12
1492,22556,29806.10
1493,22560,29826.08
1494,22568,29846.05
1495,22576,29866.03
1496,22584,29886.01
1497,22588,29905.98
1498,22600,29925.96
1499,22612,29945.94
1500,22624,29965.92
1501,22632,29985.89
1502,22624,30005.87
1503,22592,30025.85
1504,22512,30045.83
1505,22432,30065.80
1506,22360,30085.78
1507,22308,30105.76
1508,22292,30125.73
1509,22296,30145.71
1510,22308,30165.69
1511,22328,30185.67
1512,22348,30205.64
1513,22372,30225.62
1514,22388,30245.60
1515,22396,30265.58
1516,22396,30285.55
1517,22392,30305.53
1518,22380,30325.51
1519,22376,30345.49
1520,22372,30365.46
1521,22380,30385.44
1522,22396,30405.42
1523,22412,30425.39
1524,22428,30445.37
1525,22448,30465.35
1526,22468,30485.33
1527,22484,30505.30
1528,22500,30525.28
1529,22512,30545.26
1530,22520,30565.24
1531,22532,30585.21
1532,22540,30605.19
1533,22548,30625.17
1534,22556,30645.14
1535,22560,30665.12
1536,22572,30685.10
1537,22580,30705.08
1538,22596,30725.05
1539,22608,30745.03
1540,22616,30765.01
1541,22620,30784.99
1542,22588,30804.96
1543,22528,30824.94
1544,22444,30844.92
1545,22376,30864.89
1546,22328,30884.87
1547,22304,30904.85
1548,22300,30924.83
1549,22316,30944.80
1550,22336,30964.78
1551,22356,30984.76
1552,22380,31004.74
1553,22404,31024.71
1554,22420,31044.69
1555,22416,31064.67
1556,22404,31084.64
1557,22396,31104.62
1558,22388,31124.60
1559,22384,31144.58
1560,22388,31164.55
1561,22400,31184.53
1562,22416,31204.51
1563,22432,31224.49
1564,22452,31244.46
1565,22472,31264.44
1566,22488,31284.42
1567,22504,31304.39
1568,22516,31324.37
1569,22528,31344.35
1570,22536,31364.33
1571,22540,31384.30
1572,22548,31404.28
1573,22560,31424.26
1574,22564,31444.24
1575,22572,31464.21
1576,22584,31484.19
1577,22592,31504.17
1578,22604,31524.14
1579,22608,31544.12
1580,22596,31564.10
1581,22552,31584.08
1582,22480,31604.05
1583,22408,31624.03
1584,22352,31644.01
1585,22320,31663.99
1586,22308,31683.96
1587,22320,31703.94
1588,22340,31723.92
1589,22356,31743.89
1590,22384,31763.87
1591,22408,31783.85
1592,22420,31803.83
1593,22424,31823.80
1594,22416,31843.78
1595,22400,31863.76
1596,22384,31883.74
1597,22380,31903.71
1598,22372,31923.69
1599,22384,31943.67
1600,22392,31963.64
1601,22408,31983.62
1602,22424,32003.60
1603,22440,32023.58
1604,22456,32043.55
1605,22468,32063.53
1606,22476,32083.51
1607,22484,32103.49
1608,22496,32123.46
1609,22504,32143.44
1610,22512,32163.42
1611,22520,32183.39
1612,22528,32203.37
1613,22536,32223.35
1614,22548,32243.33
1615,22544,32263.30
1616,22516,32283.28
1617,22456,32303.26
1618,22388,32323.24
1619,22320,32343.21
1620,22280,32363.19
1621,22256,32383.17
1622,22264,32403.14
1623,22276,32423.12
1624,22292,32443.10
1625,22316,32463.08
1626,22344,32483.05
1627,22364,32503.03
1628,22376,32523.01
1629,22372,32542.99
1630,22364,32562.96
1631,22348,32582.94
1632,22340,32602.92
1633,22336,32622.89
1634,22340,32642.87
1635,22352,32662.85
1636,22360,32682.83
1637,22380,32702.80
1638,22400,32722.78
1639,22416,32742.76
1640,22428,32762.74
1641,22440,32782.71
1642,22448,32802.69
1643,22452,32822.67
1644,22464,32842.64
1645,22468,32862.62
1646,22480,32882.60
1647,22488,32902.58
1648,22500,32922.55
1649,22512,32942.53
1650,22520,32962.51
1651,22516,32982.49
1652,22484,33002.46
1653,22420,33022.44
1654,22336,33042.42
1655,22272,33062.39
1656,22232,33082.37
1657,22216,33102.35
1658,22220,33122.33
1659,22240,33142.30
1660,22260,33162.28
1661,22284,33182.26
1662,22308,33202.24
1663,22328,33222.21
1664,22336,33242.19
1665,22332,33262.17
1666,22324,33282.14
1667,22312,33302.12
1668,22308,33322.10
1669,22304,33342.08
1670,22312,33362.05
1671,22324,33382.03
1672,22340,33402.01
1673,22360,33421.99
1674,22376,33441.96
1675,22392,33461.94
1676,22404,33481.92
1677,22416,33501.89
1678,22420,33521.87
1679,22432,33541.85
1680,22436,33561.83
1681,22444,33581.80
1682,22456,33601.78
1683,22464,33621.76
1684,22472,33641.74
1685,22484,33661.71
1686,22492,33681.69
1687,22500,33701.67
1688,22496,33721.65
1689,22472,33741.62
1690,22412,33761.60
1691,22332,33781.58
1692,22260,33801.55
1693,22208,33821.53
1694,22188,33841.51
1695,22184,33861.49
1696,22204,33881.46
1697,22224,33901.44
1698,22244,33921.42
1699,22272,33941.40
1700,22292,33961.37
1701,22304,33981.35
1702,22308,34001.33
1703,22304,34021.30
1704,22292,34041.28
1705,22288,34061.26
1706,22284,34081.24
1707,22288,34101.21
1708,22300,34121.19
1709,22316,34141.17
1710,22332,34161.15
1711,22348,34181.12
1712,22372,34201.10
1713,22380,34221.08
1714,22396,34241.05
1715,22408,34261.03
1716,22420,34281.01
1717,22424,34300.99
1718,22428,34320.96
1719,22432,34340.94
1720,22436,34360.92
1721,22436,34380.90
1722,22444,34400.87
1723,22452,34420.85
1724,22460,34440.83
1725,22472,34460.80
1726,22488,34480.78
1727,22488,34500.76
1728,22468,34520.74
1729,22408,34540.71
1730,22328,34560.69
1731,22252,34580.67
1732,22192,34600.65
1733,22168,34620.62
1734,22168,34640.60
1735,22180,34660.58
1736,22200,34680.55
1737,22228,34700.53
1738,22256,34720.51
1739,22280,34740.49
1740,22292,34760.46
1741,22292,34780.44
1742,22280,34800.42
1743,22264,34820.40
1744,22252,34840.37
1745,22252,34860.35
1746,22252,34880.33
1747,22260,34900.30
1748,22280,34920.28
1749,22300,34940.26
1750,22316,34960.24
1751,22328,34980.21
1752,22344,35000.19
1753,22352,35020.17
1754,22364,35040.15
1755,22368,35060.12
1756,22372,35080.10
1757,22380,35100.08
1758,22388,35120.05
1759,22388,35140.03
1760,22400,35160.01
1761,22412,35179.99
1762,22420,35199.96
1763,22424,35219.94
1764,22428,35239.92
1765,22404,35259.90
1766,22344,35279.87
1767,22268,35299.85
1768,22192,35319.83
1769,22136,35339.80
1770,22108,35359.78
1771,22108,35379.76
1772,22120,35399.74
1773,22144,35419.71
1774,22164,35439.69
1775,22184,35459.67
1776,22208,35479.65
1777,22220,35499.62
1778,22224,35519.60
1779,22220,35539.58
1780,22212,35559.55
1781,22208,35579.53
1782,22204,35599.51
1783,22208,35619.49
1784,22220,35639.46
1785,22236,35659.44
1786,22256,35679.42
1787,22276,35699.40
1788,22296,35719.37
1789,22312,35739.35
1790,22328,35759.33
1791,22340,35779.30
1792,22352,35799.28
1793,22364,35819.26
1794,22372,35839.24
1795,22376,35859.21
1796,22384,35879.19
1797,22392,35899.17
1798,22400,35919.15
1799,22412,35939.12
1800,22424,35959.10
1801,22436,35979.08
1802,22440,35999.05
1803,22416,36019.03
1804,22360,36039.01
1805,22280,36058.99
1806,22192,36078.96
1807,22136,36098.94
1808,22104,36118.92
1809,22100,36138.90
1810,22120,36158.87
1811,22136,36178.85
1812,22156,36198.83
1813,22172,36218.80
1814,22196,36238.78
1815,22208,36258.76
1816,22216,36278.74
1817,22212,36298.71
1818,22204,36318.69
1819,22192,36338.67
1820,22188,36358.65
1821,22192,36378.62
1822,22204,36398.60
1823,22220,36418.58
1824,22240,36438.55
1825,22264,36458.53
1826,22280,36478.51
1827,22296,36498.49
1828,22312,36518.46
1829,22328,36538.44
1830,22340,36558.42
1831,22348,36578.40
1832,22360,36598.37
1833,22368,36618.35
1834,22380,36638.33
1835,22388,36658.30
1836,22400,36678.28
1837,22412,36698.26
1838,22428,36718.24
1839,22436,36738.21
1840,22452,36758.19
1841,22460,36778.17
1842,22456,36798.15
1843,22416,36818.12
1844,22340,36838.10
1845,22252,36858.08
1846,22176,36878.05
1847,22132,36898.03
1848,22120,36918.01
1849,22128,36937.99
1850,22144,36957.96
1851,22168,36977.94
1852,22188,36997.92
1853,22212,37017.90
1854,22228,37037.87
1855,22236,37057.85
1856,22236,37077.83
1857,22228,37097.80
1858,22216,37117.78
1859,22212,37137.76
1860,22208,37157.74
1861,22216,37177.71
1862,22228,37197.69
1863,22244,37217.67
1864,22264,37237.65
1865,22284,37257.62
1866,22296,37277.60
1867,22316,37297.58
1868,22332,37317.56
1869,22344,37337.53
1870,22356,37357.51
1871,22364,37377.49
1872,22372,37397.46
1873,22376,37417.44
1874,22384,37437.42
1875,22388,37457.40
1876,22396,37477.37
1877,22400,37497.35
1878,22412,37517.33
1879,22424,37537.31
1880,22436,37557.28
1881,22452,37577.26
1882,22444,37597.24
1883,22396,37617.21
1884,22320,37637.19
1885,22236,37657.17
1886,22164,37677.15
1887,22128,37697.12
1888,22116,37717.10
1889,22124,37737.08
1890,22144,37757.06
1891,22164,37777.03
1892,22196,37797.01
1893,22224,37816.99
1894,22240,37836.96
1895,22244,37856.94
1896,22232,37876.92
1897,22224,37896.90
1898,22208,37916.87
1899,22200,37936.85
1900,22196,37956.83
1901,22204,37976.81
1902,22212,37996.78
1903,22228,38016.76
1904,22244,38036.74
1905,22256,38056.71
1906,22272,38076.69
1907,22284,38096.67
1908,22300,38116.65
1909,22312,38136.62
1910,22320,38156.60
1911,22332,38176.58
1912,22336,38196.56
1913,22340,38216.53
1914,22348,38236.51
1915,22360,38256.49
1916,22364,38276.46
1917,22376,38296.44
1918,22380,38316.42
1919,22380,38336.40
1920,22356,38356.37
1921,22292,38376.35
1922,22208,38396.33
1923,22132,38416.31
1924,22080,38436.28
1925,22056,38456.26
1926,22064,38476.24
1927,22080,38496.21
1928,22112,38516.19
1929,22132,38536.17
1930,22164,38556.15
1931,22184,38576.12
1932,22200,38596.10
1933,22200,38616.08
1934,22192,38636.06
1935,22184,38656.03
1936,22176,38676.01
1937,22176,38695.99
1938,22180,38715.96
1939,22192,38735.94
1940,22212,38755.92
1941,22232,38775.90
1942,22248,38795.87
1943,22264,38815.85
1944,22280,38835.83
1945,22296,38855.81
1946,22304,38875.78
1947,22312,38895.76
1948,22320,38915.74
1949,22328,38935.71
1950,22332,38955.69
1951,22340,38975.67
1952,22344,38995.65
1953,22352,39015.62
1954,22360,39035.60
1955,22372,39055.58
1956,22376,39075.56
1957,22368,39095.53
1958,22336,39115.51
1959,22256,39135.49
1960,22172,39155.46
1961,22100,39175.44
1962,22060,39195.42
1963,22044,39215.40
1964,22056,39235.37
1965,22080,39255.35
1966,22104,39275.33
1967,22128,39295.31
1968,22152,39315.28
1969,22176,39335.26
1970,22184,39355.24
1971,22184,39375.21
1972,22176,39395.19
1973,22168,39415.17
1974,22160,39435.15
1975,22160,39455.12
1976,22172,39475.10
1977,22188,39495.08
1978,22204,39515.06
1979,22220,39535.03
1980,22240,39555.01
1981,22256,39574.99
1982,22272,39594.96
1983,22292,39614.94
1984,22308,39634.92
1985,22316,39654.90
1986,22328,39674.87
1987,22332,39694.85
1988,22340,39714.83
1989,22344,39734.81
1990,22352,39754.78
1991,22364,39774.76
1992,22368,39794.74
1993,22380,39814.71
1994,22388,39834.69
1995,22380,39854.67
1996,22336,39874.65
1997,22264,39894.62
1998,22180,39914.60
1999,22112,39934.58
2000,22072,39954.56
2001,22064,39974.53
2002,22068,39994.51
2003,22088,40014.49
2004,22116,40034.46
2005,22140,40054.44
2006,22168,40074.42
2007,22188,40094.40
2008,22196,40114.37
2009,22196,40134.35
2010,22188,40154.33
2011,22176,40174.31
2012,22164,40194.28
2013,22164,40214.26
2014,22176,40234.24
2015,22188,40254.21
2016,22204,40274.19
2017,22228,40294.17
2018,22248,40314.15
2019,22264,40334.12
2020,22280,40354.10
2021,22292,40374.08
2022,22304,40394.06
2023,22312,40414.03
2024,22320,40434.01
2025,22328,40453.99
2026,22336,40473.96
2027,22340,40493.94
2028,22348,40513.92
2029,22360,40533.90
2030,22376,40553.87
2031,22376,40573.85
2032,22364,40593.83
2033,22312,40613.81
2034,22240,40633.78
2035,22164,40653.76
2036,22104,40673.74
2037,22076,40693.71
2038,22068,40713.69
2039,22080,40733.67
2040,22096,40753.65
2041,22124,40773.62
2042,22152,40793.60
2043,22172,40813.58
2044,22180,40833.56
2045,22180,40853.53
2046,22168,40873.51
2047,22152,40893.49
2048,22140,40913.47
2049,22132,40933.44
2050,22136,40953.42
2051,22144,40973.40
2052,22164,40993.37
2053,22180,41013.35
2054,22204,41033.33
2055,22220,41053.31
2056,22232,41073.28
2057,22244,41093.26
2058,22256,41113.24
2059,22268,41133.22
2060,22272,41153.19
2061,22288,41173.17
2062,22292,41193.15
2063,22304,41213.12
2064,22312,41233.10
2065,22320,41253.08
2066,22328,41273.06
2067,22304,41293.03
2068,22248,41313.01
2069,22172,41332.99
2070,22100,41352.97
2071,22048,41372.94
2072,22028,41392.92
2073,22028,41412.90
2074,22044,41432.87
2075,22072,41452.85
2076,22096,41472.83
2077,22120,41492.81
2078,22144,41512.78
2079,22156,41532.76
2080,22156,41552.74
2081,22144,41572.72
2082,22132,41592.69
2083,22124,41612.67
2084,22116,41632.65
2085,22120,41652.62
2086,22136,41672.60
2087,22148,41692.58
2088,22168,41712.56
2089,22188,41732.53
2090,22204,41752.51
2091,22216,41772.49
2092,22232,41792.47
2093,22244,41812.44
2094,22248,41832.42
2095,22260,41852.40
2096,22264,41872.37
2097,22276,41892.35
2098,22288,41912.33
2099,22296,41932.31
2100,22308,41952.28
2101,22320,41972.26
2102,22308,41992.24
2103,22268,42012.22
2104,22200,42032.19
2105,22128,42052.17
2106,22072,42072.15
2107,22040,42092.12
2108,22036,42112.10
2109,22052,42132.08
2110,22072,42152.06
2111,22096,42172.03
2112,22128,42192.01
2113,22148,42211.99
2114,22164,42231.97
2115,22176,42251.94
2116,22180,42271.92
2117,22172,42291.90
2118,22168,42311.87
2119,22168,42331.85
2120,22172,42351.83
2121,22188,42371.81
2122,22208,42391.78
2123,22228,42411.76
2124,22248,42431.74
2125,22268,42451.72
2126,22288,42471.69
2127,22308,42491.67
2128,22324,42511.65
2129,22336,42531.62
2130,22348,42551.60
2131,22360,42571.58
2132,22372,42591.56
2133,22384,42611.53
2134,22396,42631.51
2135,22416,42651.49
2136,22428,42671.47
2137,22444,42691.44
2138,22456,42711.42
2139,22448,42731.40
2140,22404,42751.37
2141,22344,42771.35
2142,22276,42791.33
2143,22224,42811.31
2144,22196,42831.28
2145,22200,42851.26
2146,22208,42871.24
2147,22232,42891.22
2148,22256,42911.19
2149,22280,42931.17
2150,22304,42951.15
2151,22324,42971.12
2152,22336,42991.10
2153,22340,43011.08
2154,22340,43031.06
2155,22336,43051.03
2156,22340,43071.01
2157,22348,43090.99
2158,22364,43110.97
2159,22380,43130.94
2160,22404,43150.92
2161,22424,43170.90
2162,22448,43190.87
2163,22464,43210.85
2164,22484,43230.83
2165,22500,43250.81
2166,22512,43270.78
2167,22524,43290.76
2168,22540,43310.74
2169,22548,43330.72
2170,22564,43350.69
2171,22576,43370.67
2172,22588,43390.65
2173,22604,43410.62
2174,22620,43430.60
2175,22632,43450.58
2176,22644,43470.56
2177,22636,43490.53
2178,22600,43510.51
2179,22548,43530.49
2180,22496,43550.47
2181,22452,43570.44
2182,22428,43590.42
2183,22420,43610.40
2184,22424,43630.37
2185,22436,43650.35
2186,22448,43670.33
2187,22468,43690.31
2188,22484,43710.28
2189,22496,43730.26
2190,22504,43750.24
2191,22504,43770.22
2192,22500,43790.19
2193,22496,43810.17
2194,22500,43830.15
2195,22508,43850.12
2196,22520,43870.10
2197,22536,43890.08
2198,22556,43910.06
2199,22572,43930.03
2200,22592,43950.01
2201,22604,43969.99
2202,22620,43989.97
2203,22636,44009.94
2204,22652,44029.92
2205,22660,44049.90
2206,22680,44069.87
2207,22696,44089.85
2208,22708,44109.83
2209,22720,44129.81
2210,22736,44149.78
2211,22756,44169.76
2212,22768,44189.74
2213,22776,44209.72
2214,22764,44229.69
2215,22740,44249.67
2216,22696,44269.65
2217,22652,44289.62
2218,22620,44309.60
2219,22600,44329.58
2220,22596,44349.56
2221,22600,44369.53
2222,22604,44389.51
2223,22612,44409.49
2224,22628,44429.47
2225,22636,44449.44
2226,22648,44469.42
2227,22644,44489.40
2228,22652,44509.38
2229,22644,44529.35
2230,22648,44549.33
2231,22648,44569.31
2232,22652,44589.28
2233,22664,44609.26
2234,22680,44629.24
2235,22696,44649.22
2236,22708,44669.19
2237,22720,44689.17
2238,22740,44709.15
2239,22752,44729.13
2240,22764,44749.10
2241,22784,44769.08
2242,22796,44789.06
2243,22812,44809.03
2244,22824,44829.01
2245,22836,44848.99
2246,22852,44868.97
2247,22864,44888.94
2248,22880,44908.92
2249,22896,44928.90
2250,22912,44948.88
2251,22928,44968.85
2252,22932,44988.83
2253,22912,45008.81
2254,22884,45028.78
2255,22844,45048.76
2256,22804,45068.74
2257,22780,45088.72
2258,22764,45108.69
2259,22760,45128.67
2260,22760,45148.65
2261,22760,45168.63
2262,22772,45188.60
2263,22780,45208.58
2264,22788,45228.56
2265,22796,45248.53
2266,22800,45268.51
2267,22804,45288.49
2268,22804,45308.47
2269,22800,45328.44
2270,22804,45348.42
2271,22808,45368.40
2272,22816,45388.38
2273,22828,45408.35
2274,22836,45428.33
2275,22852,45448.31
2276,22864,45468.28
2277,22872,45488.26
2278,22884,45508.24
2279,22900,45528.22
2280,22912,45548.19
2281,22924,45568.17
2282,22936,45588.15
2283,22952,45608.13
2284,22960,45628.10
2285,22968,45648.08
2286,22980,45668.06
2287,22992,45688.03
2288,22996,45708.01
2289,23016,45727.99
2290,23028,45747.97
2291,23044,45767.94
2292,23060,45787.92
2293,23068,45807.90
2294,23056,45827.88
2295,23032,45847.85
2296,22992,45867.83
2297,22952,45887.81
2298,22916,45907.78
2299,22888,45927.76
2300,22876,45947.74
2301,22872,45967.72
2302,22876,45987.69
2303,22880,46007.67
2304,22892,46027.65
2305,22900,46047.63
2306,22904,46067.60
2307,22908,46087.58
2308,22900,46107.56
2309,22896,46127.53
2310,22888,46147.51
2311,22884,46167.49
2312,22884,46187.47
2313,22888,46207.44
2314,22892,46227.42
2315,22900,46247.40
2316,22912,46267.38
2317,22920,46287.35
2318,22932,46307.33
2319,22940,46327.31
2320,22948,46347.28
2321,22956,46367.26
2322,22964,46387.24
2323,22972,46407.22
2324,22976,46427.19
2325,22984,46447.17
2326,22992,46467.15
2327,23000,46487.13
2328,23012,46507.10
2329,23020,46527.08
2330,23032,46547.06
2331,23044,46567.03
2332,23048,46587.01
2333,23036,46606.99
2334,23008,46626.97
2335,22968,46646.94
2336,22916,46666.92
2337,22876,46686.90
2338,22848,46706.88
2339,22836,46726.85
2340,22828,46746.83
2341,22828,46766.81
2342,22832,46786.78
2343,22840,46806.76
2344,22844,46826.74
2345,22848,46846.72
2346,22852,46866.69
2347,22848,46886.67
2348,22840,46906.65
2349,22832,46926.63
2350,22832,46946.60
2351,22836,46966.58
2352,22840,46986.56
2353,22848,47006.53
2354,22856,47026.51
2355,22868,47046.49
2356,22876,47066.47
2357,22888,47086.44
2358,22900,47106.42
2359,22908,47126.40
2360,22920,47146.38
2361,22932,47166.35
2362,22940,47186.33
2363,22948,47206.31
2364,22956,47226.28
2365,22968,47246.26
2366,22972,47266.24
2367,22984,47286.22
2368,22992,47306.19
2369,23000,47326.17
2370,23008,47346.15
2371,23016,47366.13
2372,23004,47386.10
2373,22976,47406.08
2374,22928,47426.06
2375,22876,47446.03
2376,22828,47466.01
2377,22788,47485.99
2378,22768,47505.97
2379,22760,47525.94
2380,22756,47545.92
2381,22760,47565.90
2382,22760,47585.88
2383,22768,47605.85
2384,22772,47625.83
2385,22776,47645.81
2386,22772,47665.78
2387,22768,47685.76
2388,22756,47705.74
2389,22756,47725.72
2390,22752,47745.69
2391,22756,47765.67
2392,22768,47785.65
2393,22772,47805.63
2394,22788,47825.60
2395,22800,47845.58
2396,22812,47865.56
2397,22824,47885.53
2398,22836,47905.51
2399,22852,47925.49
2400,22864,47945.47
2401,22872,47965.44
2402,22880,47985.42
2403,22888,48005.40
2404,22896,48025.38
2405,22908,48045.35
2406,22916,48065.33
2407,22932,48085.31
2408,22936,48105.29
2409,22920,48125.26
2410,22892,48145.24
2411,22840,48165.22
2412,22788,48185.19
2413,22736,48205.17
2414,22704,48225.15
2415,22684,48245.13
2416,22676,48265.10
2417,22676,48285.08
2418,22684,48305.06
2419,22696,48325.04
2420,22708,48345.01
2421,22712,48364.99
2422,22712,48384.97
2423,22704,48404.94
2424,22696,48424.92
2425,22688,48444.90
2426,22680,48464.88
2427,22676,48484.85
2428,22676,48504.83
2429,22688,48524.81
2430,22696,48544.79
2431,22712,48564.76
2432,22716,48584.74
2433,22728,48604.72
2434,22744,48624.69
2435,22748,48644.67
2436,22760,48664.65
2437,22768,48684.63
2438,22776,48704.60
2439,22788,48724.58
2440,22792,48744.56
2441,22804,48764.54
2442,22812,48784.51
2443,22808,48804.49
2444,22792,48824.47
2445,22744,48844.44
2446,22688,48864.42
2447,22632,48884.40
2448,22588,48904.38
2449,22556,48924.35
2450,22548,48944.33
2451,22552,48964.31
2452,22564,48984.29
2453,22576,49004.26
2454,22592,49024.24
2455,22608,49044.22
2456,22616,49064.19
2457,22616,49084.17
2458,22608,49104.15
2459,22596,49124.13
2460,22588,49144.10
2461,22580,49164.08
2462,22580,49184.06
2463,22584,49204.04
2464,22592,49224.01
2465,22604,49243.99
2466,22620,49263.97
2467,22632,49283.94
2468,22644,49303.92
2469,22656,49323.90
2470,22664,49343.88
2471,22672,49363.85
2472,22680,49383.83
2473,22684,49403.81
2474,22696,49423.79
2475,22704,49443.76
2476,22708,49463.74
2477,22712,49483.72
2478,22696,49503.69
2479,22648,49523.67
2480,22584,49543.65
2481,22520,49563.63
2482,22472,49583.60
2483,22448,49603.58
2484,22436,49623.56
2485,22440,49643.54
2486,22452,49663.51
2487,22472,49683.49
2488,22488,49703.47
2489,22508,49723.44
2490,22516,49743.42
2491,22520,49763.40
2492,22516,49783.38
2493,22504,49803.35
2494,22500,49823.33
2495,22496,49843.31
2496,22500,49863.29
2497,22504,49883.26
2498,22516,49903.24
2499,22528,49923.22
2500,22548,49943.19
2501,22560,49963.17
2502,22572,49983.15
2503,22584,50003.13
2504,22600,50023.10
2505,22608,50043.08
2506,22616,50063.06
2507,22624,50083.04
2508,22636,50103.01
2509,22640,50122.99
2510,22652,50142.97
2511,22656,50162.94
2512,22644,50182.92
2513,22604,50202.90
2514,22548,50222.88
2515,22480,50242.85
2516,22424,50262.83
2517,22392,50282.81
2518,22380,50302.79
2519,22384,50322.76
2520,22396,50342.74
2521,22412,50362.72
2522,22428,50382.69
2523,22448,50402.67
2524,22464,50422.65
2525,22472,50442.63
2526,22476,50462.60
2527,22468,50482.58
2528,22460,50502.56
2529,22456,50522.54
2530,22456,50542.51
2531,22464,50562.49
2532,22476,50582.47
2533,22488,50602.44
2534,22504,50622.42
2535,22524,50642.40
2536,22540,50662.38
2537,22552,50682.35
2538,22568,50702.33
2539,22576,50722.31
2540,22588,50742.29
2541,22596,50762.26
2542,22608,50782.24
2543,22620,50802.22
2544,22628,50822.19
2545,22636,50842.17
2546,22644,50862.15
2547,22640,50882.13
2548,22612,50902.10
2549,22556,50922.08
2550,22488,50942.06
2551,22428,50962.04
2552,22388,50982.01
2553,22372,51001.99
2554,22376,51021.97
2555,22388,51041.94
2556,22408,51061.92
2557,22428,51081.90
2558,22448,51101.88
2559,22468,51121.85
2560,22472,51141.83
2561,22468,51161.81
2562,22456,51181.79
2563,22444,51201.76
2564,22436,51221.74
2565,22436,51241.72
2566,22440,51261.69
2567,22452,51281.67
2568,22464,51301.65
2569,22480,51321.63
2570,22496,51341.60
2571,22508,51361.58
2572,22520,51381.56
2573,22532,51401.54
2574,22540,51421.51
2575,22548,51441.49
2576,22556,51461.47
2577,22560,51481.45
2578,22568,51501.42
2579,22576,51521.40
2580,22576,51541.38
2581,22564,51561.35
2582,22524,51581.33
2583,22468,51601.31
2584,22404,51621.29
2585,22352,51641.26
2586,22324,51661.24
2587,22316,51681.22
2588,22320,51701.20
2589,22340,51721.17
2590,22364,51741.15
2591,22384,51761.13
2592,22412,51781.10
2593,22428,51801.08
2594,22432,51821.06
2595,22428,51841.04
2596,22424,51861.01
2597,22412,51880.99
2598,22408,51900.97
2599,22412,51920.95
2600,22424,51940.92
2601,22436,51960.90
2602,22456,51980.88
2603,22472,52000.85
2604,22488,52020.83
2605,22500,52040.81
2606,22512,52060.79
2607,22524,52080.76
2608,22536,52100.74
2609,22540,52120.72
2610,22544,52140.70
2611,22548,52160.67
2612,22556,52180.65
2613,22568,52200.63
2614,22572,52220.60
2615,22572,52240.58
2616,22544,52260.56
2617,22484,52280.54
2618,22412,52300.51
2619,22344,52320.49
2620,22296,52340.47
2621,22280,52360.45
2622,22280,52380.42
2623,22296,52400.40
2624,22316,52420.38
2625,22336,52440.35
2626,22356,52460.33
2627,22376,52480.31
2628,22388,52500.29
2629,22388,52520.26
2630,22384,52540.24
2631,22380,52560.22
2632,22376,52580.20
2633,22376,52600.17
2634,22384,52620.15
2635,22396,52640.13
2636,22412,52660.10
2637,22428,52680.08
2638,22448,52700.06
2639,22472,52720.04
2640,22488,52740.01
2641,22500,52759.99
2642,22512,52779.97
2643,22520,52799.95
2644,22524,52819.92
2645,22536,52839.90
2646,22544,52859.88
2647,22556,52879.85
2648,22568,52899.83
2649,22576,52919.81
2650,22568,52939.79
2651,22524,52959.76
2652,22460,52979.74
2653,22392,52999.72
2654,22332,53019.70
2655,22300,53039.67
2656,22288,53059.65
2657,22300,53079.63
2658,22316,53099.60
2659,22336,53119.58
2660,22356,53139.56
2661,22376,53159.54
2662,22392,53179.51
2663,22400,53199.49
2664,22400,53219.47
2665,22392,53239.45
2666,22384,53259.42
2667,22380,53279.40
2668,22380,53299.38
2669,22388,53319.35
2670,22400,53339.33
2671,22416,53359.31
2672,22436,53379.29
2673,22452,53399.26
2674,22468,53419.24
2675,22488,53439.22
2676,22500,53459.20
2677,22512,53479.17
2678,22516,53499.15
2679,22528,53519.13
2680,22540,53539.10
2681,22548,53559.08
2682,22556,53579.06
2683,22568,53599.04
2684,22568,53619.01
2685,22560,53638.99
2686,22524,53658.97
2687,22460,53678.95
2688,22388,53698.92
2689,22320,53718.90
2690,22280,53738.88
2691,22268,53758.85
2692,22276,53778.83
2693,22292,53798.81
2694,22316,53818.79
2695,22336,53838.76
2696,22360,53858.74
2697,22376,53878.72
2698,22384,53898.70
2699,22380,53918.67
2700,22368,53938.65
2701,22360,53958.63
2702,22348,53978.60
2703,22348,53998.58
2704,22356,54018.56
2705,22368,54038.54
2706,22384,54058.51
2707,22400,54078.49
2708,22412,54098.47
2709,22428,54118.45
2710,22436,54138.42
2711,22448,54158.40
2712,22452,54178.38
2713,22464,54198.35
2714,22468,54218.33
2715,22480,54238.31
2716,22488,54258.29
2717,22496,54278.26
2718,22500,54298.24
2719,22492,54318.22
2720,22448,54338.20
2721,22384,54358.17
2722,22312,54378.15
2723,22256,54398.13
2724,22228,54418.10
2725,22220,54438.08
2726,22232,54458.06
2727,22256,54478.04
2728,22280,54498.01
2729,22300,54517.99
2730,22324,54537.97
2731,22344,54557.95
2732,22348,54577.92
2733,22348,54597.90
2734,22340,54617.88
2735,22332,54637.85
2736,22332,54657.83
2737,22328,54677.81
2738,22344,54697.79
2739,22360,54717.76
2740,22376,54737.74
2741,22396,54757.72
2742,22408,54777.70
2743,22428,54797.67
2744,22440,54817.65
2745,22452,54837.63
2746,22460,54857.60
2747,22468,54877.58
2748,22476,54897.56
2749,22480,54917.54
2750,22488,54937.51
2751,22496,54957.49
2752,22500,54977.47
2753,22508,54997.45
2754,22496,55017.42
2755,22460,55037.40
2756,22388,55057.38
2757,22308,55077.36
2758,22240,55097.33
2759,22196,55117.31
2760,22188,55137.29
2761,22192,55157.26
2762,22212,55177.24
2763,22232,55197.22
2764,22256,55217.20
2765,22276,55237.17
2766,22292,55257.15
2767,22300,55277.13
2768,22296,55297.11
2769,22292,55317.08
2770,22284,55337.06
2771,22280,55357.04
2772,22284,55377.01
2773,22292,55396.99
2774,22312,55416.97
2775,22332,55436.95
2776,22348,55456.92
2777,22368,55476.90
2778,22388,55496.88
2779,22404,55516.86
2780,22416,55536.83
2781,22428,55556.81
2782,22440,55576.79
2783,22448,55596.76
2784,22460,55616.74
2785,22464,55636.72
2786,22480,55656.70
2787,22492,55676.67
2788,22504,55696.65
2789,22508,55716.63
2790,22500,55736.61
2791,22456,55756.58
2792,22388,55776.56
2793,22308,55796.54
2794,22248,55816.51
2795,22216,55836.49
2796,22208,55856.47
2797,22220,55876.45
2798,22244,55896.42
2799,22260,55916.40
2800,22288,55936.38
2801,22312,55956.36
2802,22328,55976.33
2803,22336,55996.31
2804,22332,56016.29
2805,22320,56036.26
2806,22312,56056.24
2807,22308,56076.22
2808,22304,56096.20
2809,22312,56116.17
2810,22328,56136.15
2811,22348,56156.13
2812,22364,56176.11
2813,22384,56196.08
2814,22396,56216.06
2815,22412,56236.04
2816,22424,56256.01
2817,22432,56275.99
2818,22448,56295.97
2819,22456,56315.95
2820,22460,56335.92
2821,22468,56355.90
2822,22476,56375.88
2823,22484,56395.86
2824,22496,56415.83
2825,22508,56435.81
2826,22516,56455.79
2827,22520,56475.76
2828,22484,56495.74
2829,22420,56515.72
2830,22340,56535.70
2831,22268,56555.67
2832,22224,56575.65
2833,22208,56595.63
2834,22212,56615.61
2835,22236,56635.58
2836,22260,56655.56
2837,22288,56675.54
2838,22312,56695.51
2839,22336,56715.49
2840,22344,56735.47
2841,22340,56755.45
2842,22332,56775.42
2843,22320,56795.40
2844,22308,56815.38
2845,22304,56835.36
2846,22312,56855.33
2847,22324,56875.31
2848,22344,56895.29
2849,22352,56915.26
2850,22368,56935.24
2851,22380,56955.22
2852,22388,56975.20
2853,22396,56995.17
2854,22400,57015.15
2855,22412,57035.13
2856,22420,57055.11
2857,22428,57075.08
2858,22436,57095.06
2859,22448,57115.04
2860,22456,57135.01
2861,22464,57154.99
2862,22456,57174.97
2863,22420,57194.95
2864,22352,57214.92
2865,22276,57234.90
2866,22216,57254.88
2867,22176,57274.86
2868,22168,57294.83
2869,22180,57314.81
2870,22200,57334.79
2871,22228,57354.76
2872,22252,57374.74
2873,22284,57394.72
2874,22304,57414.70
2875,22312,57434.67
2876,22308,57454.65
2877,22300,57474.63
2878,22284,57494.61
2879,22276,57514.58
2880,22280,57534.56
2881,22288,57554.54
2882,22304,57574.51
2883,22324,57594.49
2884,22344,57614.47
2885,22360,57634.45
2886,22380,57654.42
2887,22392,57674.40
2888,22404,57694.38
2889,22416,57714.36
2890,22428,57734.33
2891,22432,57754.31
2892,22440,57774.29
2893,22452,57794.26
2894,22464,57814.24
2895,22472,57834.22
2896,22480,57854.20
2897,22480,57874.17
2898,22448,57894.15
2899,22380,57914.13
2900,22296,57934.11
2901,22220,57954.08
2902,22164,57974.06
2903,22144,57994.04
2904,22152,58014.01
2905,22168,58033.99
2906,22192,58053.97
2907,22220,58073.95
2908,22244,58093.92
2909,22268,58113.90
2910,22272,58133.88
2911,22272,58153.86
2912,22260,58173.83
2913,22252,58193.81
2914,22244,58213.79
2915,22244,58233.76
2916,22248,58253.74
2917,22260,58273.72
2918,22280,58293.70
2919,22300,58313.67
2920,22316,58333.65
2921,22332,58353.63
2922,22348,58373.61
2923,22364,58393.58
2924,22380,58413.56
2925,22388,58433.54
2926,22396,58453.51
2927,22408,58473.49
2928,22420,58493.47
2929,22428,58513.45
2930,22444,58533.42
2931,22452,58553.40
2932,22460,58573.38
2933,22444,58593.36
2934,22392,58613.33
2935,22316,58633.31
2936,22240,58653.29
2937,22184,58673.27
2938,22156,58693.24
2939,22152,58713.22
2940,22164,58733.20
2941,22192,58753.17
2942,22212,58773.15
2943,22240,58793.13
2944,22268,58813.11
2945,22284,58833.08
2946,22284,58853.06
2947,22280,58873.04
2948,22264,58893.02
2949,22252,58912.99
2950,22244,58932.97
2951,22244,58952.95
2952,22252,58972.92
2953,22272,58992.90
2954,22288,59012.88
2955,22308,59032.86
2956,22328,59052.83
2957,22340,59072.81
2958,22352,59092.79
2959,22364,59112.77
2960,22372,59132.74
2961,22380,59152.72
2962,22392,59172.70
2963,22400,59192.67
2964,22408,59212.65
2965,22420,59232.63
2966,22428,59252.61
2967,22440,59272.58
2968,22436,59292.56
2969,22412,59312.54
2970,22348,59332.52
2971,22268,59352.49
2972,22200,59372.47
2973,22152,59392.45
2974,22136,59412.42
2975,22140,59432.40
2976,22164,59452.38
2977,22192,59472.36
2978,22216,59492.33
2979,22248,59512.31
2980,22268,59532.29
2981,22280,59552.27
2982,22272,59572.24
2983,22260,59592.22
2984,22248,59612.20
2985,22232,59632.17
2986,22232,59652.15
2987,22236,59672.13
2988,22252,59692.11
2989,22268,59712.08
2990,22284,59732.06
2991,22304,59752.04
2992,22320,59772.02
2993,22332,59791.99
2994,22344,59811.97
2995,22348,59831.95
2996,22352,59851.92
2997,22356,59871.90
2998,22356,59891.88
2999,22364,59911.86
