Sample_Index,IR_Value,Timestamp_ms
0,24408,0.00
1,24372,22.95
2,24352,45.90
3,24344,68.85
4,24332,91.80
5,24312,114.75
6,24284,137.70
7,24256,160.65
8,24244,183.60
9,24260,206.55
10,24292,229.50
11,24320,252.45
12,24340,275.40
13,24344,298.35
14,24352,321.30
15,24368,344.25
16,24384,367.20
17,24400,390.15
18,24420,413.10
19,24440,436.05
20,24452,459.00
21,24464,481.95
22,24468,504.90
23,24468,527.85
24,24468,550.80
25,24476,573.75
26,24484,596.69
27,24492,619.64
28,24496,642.59
29,24500,665.54
30,24512,688.49
31,24528,711.44
32,24540,734.39
33,24556,757.34
34,24564,780.29
35,24572,803.24
36,24580,826.19
37,24584,849.14
38,24592,872.09
39,24596,895.04
40,24600,917.99
41,24612,940.94
42,24612,963.89
43,24624,986.84
44,24628,1009.79
45,24636,1032.74
46,24648,1055.69
47,24652,1078.64
48,24656,1101.59
49,24652,1124.54
50,24648,1147.49
51,24656,1170.44
52,24660,1193.39
53,24668,1216.34
54,24676,1239.29
55,24688,1262.24
56,24692,1285.19
57,24696,1308.14
58,24708,1331.09
59,24716,1354.04
60,24716,1376.99
61,24724,1399.94
62,24728,1422.89
63,24732,1445.84
64,24740,1468.79
65,24740,1491.74
66,24748,1514.69
67,24752,1537.64
68,24752,1560.59
69,24756,1583.54
70,24764,1606.49
71,24764,1629.44
72,24768,1652.39
73,24772,1675.34
74,24776,1698.29
75,24784,1721.24
76,24788,1744.19
77,24788,1767.13
78,24788,1790.08
79,24792,1813.03
80,24796,1835.98
81,24796,1858.93
82,24796,1881.88
83,24800,1904.83
84,24808,1927.78
85,24816,1950.73
86,24816,1973.68
87,24820,1996.63
88,24828,2019.58
89,24836,2042.53
90,24836,2065.48
91,24836,2088.43
92,24836,2111.38
93,24840,2134.33
94,24844,2157.28
95,24852,2180.23
96,24852,2203.18
97,24860,2226.13
98,24868,2249.08
99,24868,2272.03
100,24876,2294.98
101,24884,2317.93
102,24888,2340.88
103,24896,2363.83
104,24900,2386.78
105,24904,2409.73
106,24908,2432.68
107,24912,2455.63
108,24908,2478.58
109,24912,2501.53
110,24912,2524.48
111,24916,2547.43
112,24912,2570.38
113,24916,2593.33
114,24920,2616.28
115,24920,2639.23
116,24924,2662.18
117,24928,2685.13
118,24924,2708.08
119,24928,2731.03
120,24932,2753.98
121,24936,2776.93
122,24944,2799.88
123,24944,2822.83
124,24940,2845.78
125,24940,2868.73
126,24944,2891.68
127,24952,2914.63
128,24956,2937.57
129,24964,2960.52
130,24964,2983.47
131,24964,3006.42
132,24964,3029.37
133,24960,3052.32
134,24960,3075.27
135,24960,3098.22
136,24964,3121.17
137,24968,3144.12
138,24972,3167.07
139,24980,3190.02
140,24984,3212.97
141,24992,3235.92
142,24996,3258.87
143,25000,3281.82
144,24996,3304.77
145,25000,3327.72
146,25004,3350.67
147,25004,3373.62
148,25008,3396.57
149,25008,3419.52
150,25012,3442.47
151,25012,3465.42
152,25012,3488.37
153,25016,3511.32
154,25016,3534.27
155,25016,3557.22
156,25016,3580.17
157,25012,3603.12
158,25012,3626.07
159,25016,3649.02
160,25020,3671.97
161,25020,3694.92
162,25020,3717.87
163,25024,3740.82
164,25024,3763.77
165,25024,3786.72
166,25024,3809.67
167,25020,3832.62
168,25020,3855.57
169,25020,3878.52
170,25020,3901.47
171,25020,3924.42
172,25024,3947.37
173,25028,3970.32
174,25032,3993.27
175,25032,4016.22
176,25036,4039.17
177,25040,4062.12
178,25044,4085.07
179,25048,4108.01
180,25052,4130.96
181,25056,4153.91
182,25056,4176.86
183,25060,4199.81
184,25060,4222.76
185,25064,4245.71
186,25060,4268.66
187,25064,4291.61
188,25064,4314.56
189,25064,4337.51
190,25068,4360.46
191,25064,4383.41
192,25068,4406.36
193,25064,4429.31
194,25068,4452.26
195,25072,4475.21
196,25072,4498.16
197,25076,4521.11
198,25076,4544.06
199,25076,4567.01
200,25072,4589.96
201,25064,4612.91
202,25056,4635.86
203,25048,4658.81
204,25044,4681.76
205,25052,4704.71
206,25052,4727.66
207,25056,4750.61
208,25052,4773.56
209,25048,4796.51
210,25052,4819.46
211,25052,4842.41
212,25056,4865.36
213,25060,4888.31
214,25060,4911.26
215,25068,4934.21
216,25056,4957.16
217,25060,4980.11
218,25056,5003.06
219,25060,5026.01
220,25064,5048.96
221,25056,5071.91
222,25056,5094.86
223,25060,5117.81
224,25064,5140.76
225,25068,5163.71
226,25072,5186.66
227,25068,5209.61
228,25072,5232.56
229,25076,5255.51
230,25068,5278.45
231,25068,5301.40
232,25064,5324.35
233,25060,5347.30
234,25056,5370.25
235,25044,5393.20
236,25036,5416.15
237,25024,5439.10
238,25020,5462.05
239,25020,5485.00
240,25024,5507.95
241,25012,5530.90
242,25016,5553.85
243,25016,5576.80
244,25016,5599.75
245,25020,5622.70
246,25020,5645.65
247,25024,5668.60
248,25024,5691.55
249,25024,5714.50
250,25024,5737.45
251,25024,5760.40
252,25028,5783.35
253,25028,5806.30
254,25024,5829.25
255,25020,5852.20
256,25020,5875.15
257,25024,5898.10
258,25024,5921.05
259,25024,5944.00
260,25028,5966.95
261,25028,5989.90
262,25032,6012.85
263,25036,6035.80
264,25032,6058.75
265,25032,6081.70
266,25032,6104.65
267,25028,6127.60
268,25024,6150.55
269,25020,6173.50
270,25012,6196.45
271,25000,6219.40
272,24984,6242.35
273,24972,6265.30
274,24960,6288.25
275,24948,6311.20
276,24936,6334.15
277,24932,6357.10
278,24928,6380.05
279,24924,6403.00
280,24928,6425.95
281,24920,6448.89
282,24920,6471.84
283,24928,6494.79
284,24932,6517.74
285,24936,6540.69
286,24940,6563.64
287,24948,6586.59
288,24944,6609.54
289,24948,6632.49
290,24956,6655.44
291,24968,6678.39
292,24972,6701.34
293,24972,6724.29
294,24972,6747.24
295,24972,6770.19
296,24976,6793.14
297,24976,6816.09
298,24980,6839.04
299,24980,6861.99
300,24992,6884.94
301,24992,6907.89
302,25004,6930.84
303,25004,6953.79
304,25012,6976.74
305,25008,6999.69
306,25008,7022.64
307,25000,7045.59
308,24996,7068.54
309,24992,7091.49
310,24988,7114.44
311,24984,7137.39
312,24984,7160.34
313,24980,7183.29
314,24976,7206.24
315,24976,7229.19
316,24980,7252.14
317,24980,7275.09
318,24988,7298.04
319,24992,7320.99
320,24992,7343.94
321,24996,7366.89
322,24996,7389.84
323,24996,7412.79
324,24996,7435.74
325,25004,7458.69
326,25004,7481.64
327,25004,7504.59
328,25012,7527.54
329,25016,7550.49
330,25020,7573.44
331,25020,7596.39
332,25028,7619.33
333,25028,7642.28
334,25032,7665.23
335,25036,7688.18
336,25036,7711.13
337,25036,7734.08
338,25036,7757.03
339,25036,7779.98
340,25040,7802.93
341,25040,7825.88
342,25032,7848.83
343,25024,7871.78
344,25016,7894.73
345,25008,7917.68
346,25004,7940.63
347,25000,7963.58
348,25004,7986.53
349,25000,8009.48
350,25000,8032.43
351,24996,8055.38
352,24996,8078.33
353,25000,8101.28
354,25004,8124.23
355,25004,8147.18
356,25008,8170.13
357,25008,8193.08
358,25008,8216.03
359,25008,8238.98
360,25008,8261.93
361,25008,8284.88
362,25012,8307.83
363,25016,8330.78
364,25020,8353.73
365,25020,8376.68
366,25020,8399.63
367,25024,8422.58
368,25024,8445.53
369,25024,8468.48
370,25024,8491.43
371,25032,8514.38
372,25032,8537.33
373,25036,8560.28
374,25040,8583.23
375,25036,8606.18
376,25044,8629.13
377,25044,8652.08
378,25044,8675.03
379,25040,8697.98
380,25032,8720.93
381,25028,8743.88
382,25020,8766.83
383,25016,8789.77
384,25012,8812.72
385,25012,8835.67
386,25012,8858.62
387,25012,8881.57
388,25012,8904.52
389,25012,8927.47
390,25008,8950.42
391,25012,8973.37
392,25016,8996.32
393,25016,9019.27
394,25012,9042.22
395,25016,9065.17
396,25012,9088.12
397,25012,9111.07
398,25012,9134.02
399,25012,9156.97
400,25012,9179.92
401,25012,9202.87
402,25016,9225.82
403,25020,9248.77
404,25024,9271.72
405,25024,9294.67
406,25028,9317.62
407,25028,9340.57
408,25028,9363.52
409,25028,9386.47
410,25032,9409.42
411,25036,9432.37
412,25040,9455.32
413,25040,9478.27
414,25040,9501.22
415,25040,9524.17
416,25040,9547.12
417,25044,9570.07
418,25032,9593.02
419,25020,9615.97
420,25008,9638.92
421,24996,9661.87
422,24988,9684.82
423,24976,9707.77
424,24972,9730.72
425,24960,9753.67
426,24940,9776.62
427,24928,9799.57
428,24912,9822.52
429,24900,9845.47
430,24880,9868.42
431,24860,9891.37
432,24840,9914.32
433,24816,9937.26
434,24788,9960.21
435,24760,9983.16
436,24732,10006.11
437,24716,10029.06
438,24704,10052.01
439,24700,10074.96
440,24696,10097.91
441,24692,10120.86
442,24684,10143.81
443,24676,10166.76
444,24664,10189.71
445,24656,10212.66
446,24652,10235.61
447,24644,10258.56
448,24632,10281.51
449,24620,10304.46
450,24612,10327.41
451,24600,10350.36
452,24588,10373.31
453,24572,10396.26
454,24548,10419.21
455,24516,10442.16
456,24492,10465.11
457,24464,10488.06
458,24432,10511.01
459,24404,10533.96
460,24384,10556.91
461,24376,10579.86
462,24368,10602.81
463,24360,10625.76
464,24348,10648.71
465,24340,10671.66
466,24328,10694.61
467,24324,10717.56
468,24312,10740.51
469,24300,10763.46
470,24284,10786.41
471,24272,10809.36
472,24264,10832.31
473,24256,10855.26
474,24248,10878.21
475,24236,10901.16
476,24232,10924.11
477,24228,10947.06
478,24216,10970.01
479,24216,10992.96
480,24212,11015.91
481,24204,11038.86
482,24208,11061.81
483,24204,11084.76
484,24200,11107.70
485,24200,11130.65
486,24200,11153.60
487,24200,11176.55
488,24196,11199.50
489,24200,11222.45
490,24200,11245.40
491,24196,11268.35
492,24192,11291.30
493,24180,11314.25
494,24172,11337.20
495,24156,11360.15
496,24144,11383.10
497,24136,11406.05
498,24128,11429.00
499,24124,11451.95
500,24124,11474.90
501,24120,11497.85
502,24120,11520.80
503,24116,11543.75
504,24116,11566.70
505,24116,11589.65
506,24116,11612.60
507,24116,11635.55
508,24112,11658.50
509,24116,11681.45
510,24116,11704.40
511,24116,11727.35
512,24116,11750.30
513,24116,11773.25
514,24112,11796.20
515,24116,11819.15
516,24120,11842.10
517,24128,11865.05
518,24128,11888.00
519,24128,11910.95
520,24128,11933.90
521,24120,11956.85
522,24124,11979.80
523,24120,12002.75
524,24116,12025.70
525,24120,12048.65
526,24124,12071.60
527,24128,12094.55
528,24132,12117.50
529,24132,12140.45
530,24132,12163.40
531,24124,12186.35
532,24120,12209.30
533,24112,12232.25
534,24104,12255.20
535,24092,12278.14
536,24084,12301.09
537,24076,12324.04
538,24068,12346.99
539,24064,12369.94
540,24052,12392.89
541,24048,12415.84
542,24048,12438.79
543,24044,12461.74
544,24044,12484.69
545,24044,12507.64
546,24040,12530.59
547,24036,12553.54
548,24036,12576.49
549,24032,12599.44
550,24036,12622.39
551,24044,12645.34
552,24056,12668.29
553,24068,12691.24
554,24084,12714.19
555,24104,12737.14
556,24124,12760.09
557,24140,12783.04
558,24148,12805.99
559,24160,12828.94
560,24168,12851.89
561,24176,12874.84
562,24184,12897.79
563,24188,12920.74
564,24200,12943.69
565,24204,12966.64
566,24204,12989.59
567,24212,13012.54
568,24216,13035.49
569,24212,13058.44
570,24212,13081.39
571,24208,13104.34
572,24200,13127.29
573,24188,13150.24
574,24172,13173.19
575,24168,13196.14
576,24160,13219.09
577,24156,13242.04
578,24148,13264.99
579,24136,13287.94
580,24124,13310.89
581,24116,13333.84
582,24108,13356.79
583,24108,13379.74
584,24108,13402.69
585,24108,13425.64
586,24100,13448.58
587,24092,13471.53
588,24088,13494.48
589,24084,13517.43
590,24084,13540.38
591,24084,13563.33
592,24084,13586.28
593,24084,13609.23
594,24084,13632.18
595,24084,13655.13
596,24088,13678.08
597,24084,13701.03
598,24080,13723.98
599,24080,13746.93
600,24076,13769.88
601,24072,13792.83
602,24072,13815.78
603,24072,13838.73
604,24060,13861.68
605,24044,13884.63
606,24032,13907.58
607,24012,13930.53
608,23992,13953.48
609,23976,13976.43
610,23968,13999.38
611,23956,14022.33
612,23952,14045.28
613,23952,14068.23
614,23952,14091.18
615,23956,14114.13
616,23964,14137.08
617,23964,14160.03
618,23960,14182.98
619,23956,14205.93
620,23948,14228.88
621,23944,14251.83
622,23936,14274.78
623,23928,14297.73
624,23928,14320.68
625,23924,14343.63
626,23920,14366.58
627,23932,14389.53
628,23936,14412.48
629,23952,14435.43
630,23968,14458.38
631,23984,14481.33
632,24000,14504.28
633,24008,14527.23
634,24016,14550.18
635,24024,14573.13
636,24020,14596.08
637,24016,14619.02
638,23996,14641.97
639,23980,14664.92
640,23960,14687.87
641,23948,14710.82
642,23944,14733.77
643,23944,14756.72
644,23940,14779.67
645,23940,14802.62
646,23936,14825.57
647,23936,14848.52
648,23936,14871.47
649,23940,14894.42
650,23936,14917.37
651,23928,14940.32
652,23916,14963.27
653,23904,14986.22
654,23884,15009.17
655,23872,15032.12
656,23860,15055.07
657,23840,15078.02
658,23824,15100.97
659,23808,15123.92
660,23792,15146.87
661,23780,15169.82
662,23760,15192.77
663,23752,15215.72
664,23740,15238.67
665,23728,15261.62
666,23716,15284.57
667,23700,15307.52
668,23688,15330.47
669,23684,15353.42
670,23672,15376.37
671,23664,15399.32
672,23640,15422.27
673,23612,15445.22
674,23580,15468.17
675,23548,15491.12
676,23520,15514.07
677,23500,15537.02
678,23484,15559.97
679,23464,15582.92
680,23444,15605.87
681,23432,15628.82
682,23420,15651.77
683,23412,15674.72
684,23400,15697.67
685,23392,15720.62
686,23380,15743.57
687,23372,15766.52
688,23356,15789.46
689,23348,15812.41
690,23340,15835.36
691,23336,15858.31
692,23332,15881.26
693,23332,15904.21
694,23324,15927.16
695,23320,15950.11
696,23316,15973.06
697,23312,15996.01
698,23312,16018.96
699,23312,16041.91
700,23312,16064.86
701,23312,16087.81
702,23312,16110.76
703,23320,16133.71
704,23324,16156.66
705,23320,16179.61
706,23324,16202.56
707,23324,16225.51
708,23324,16248.46
709,23324,16271.41
710,23324,16294.36
711,23324,16317.31
712,23312,16340.26
713,23304,16363.21
714,23284,16386.16
715,23268,16409.11
716,23252,16432.06
717,23240,16455.01
718,23232,16477.96
719,23228,16500.91
720,23228,16523.86
721,23228,16546.81
722,23232,16569.76
723,23228,16592.71
724,23228,16615.66
725,23224,16638.61
726,23228,16661.56
727,23224,16684.51
728,23224,16707.46
729,23224,16730.41
730,23224,16753.36
731,23224,16776.31
732,23224,16799.26
733,23224,16822.21
734,23224,16845.16
735,23220,16868.11
736,23220,16891.06
737,23216,16914.01
738,23220,16936.96
739,23224,16959.90
740,23228,16982.85
741,23228,17005.80
742,23232,17028.75
743,23236,17051.70
744,23240,17074.65
745,23244,17097.60
746,23248,17120.55
747,23248,17143.50
748,23244,17166.45
749,23240,17189.40
750,23232,17212.35
751,23220,17235.30
752,23212,17258.25
753,23204,17281.20
754,23200,17304.15
755,23196,17327.10
756,23196,17350.05
757,23196,17373.00
758,23200,17395.95
759,23204,17418.90
760,23208,17441.85
761,23212,17464.80
762,23212,17487.75
763,23208,17510.70
764,23204,17533.65
765,23204,17556.60
766,23200,17579.55
767,23200,17602.50
768,23208,17625.45
769,23208,17648.40
770,23212,17671.35
771,23216,17694.30
772,23216,17717.25
773,23224,17740.20
774,23224,17763.15
775,23228,17786.10
776,23228,17809.05
777,23232,17832.00
778,23236,17854.95
779,23236,17877.90
780,23244,17900.85
781,23240,17923.80
782,23236,17946.75
783,23224,17969.70
784,23212,17992.65
785,23204,18015.60
786,23196,18038.55
787,23192,18061.50
788,23188,18084.45
789,23188,18107.40
790,23188,18130.34
791,23192,18153.29
792,23196,18176.24
793,23196,18199.19
794,23196,18222.14
795,23196,18245.09
796,23192,18268.04
797,23196,18290.99
798,23196,18313.94
799,23204,18336.89
800,23208,18359.84
801,23216,18382.79
802,23216,18405.74
803,23220,18428.69
804,23224,18451.64
805,23228,18474.59
806,23236,18497.54
807,23236,18520.49
808,23240,18543.44
809,23244,18566.39
810,23248,18589.34
811,23248,18612.29
812,23248,18635.24
813,23248,18658.19
814,23232,18681.14
815,23212,18704.09
816,23192,18727.04
817,23168,18749.99
818,23144,18772.94
819,23124,18795.89
820,23108,18818.84
821,23096,18841.79
822,23084,18864.74
823,23072,18887.69
824,23060,18910.64
825,23056,18933.59
826,23048,18956.54
827,23044,18979.49
828,23044,19002.44
829,23040,19025.39
830,23036,19048.34
831,23032,19071.29
832,23032,19094.24
833,23032,19117.19
834,23036,19140.14
835,23040,19163.09
836,23052,19186.04
837,23068,19208.99
838,23084,19231.94
839,23100,19254.89
840,23120,19277.84
841,23124,19300.78
842,23140,19323.73
843,23144,19346.68
844,23144,19369.63
845,23144,19392.58
846,23144,19415.53
847,23140,19438.48
848,23148,19461.43
849,23144,19484.38
850,23144,19507.33
851,23144,19530.28
852,23144,19553.23
853,23136,19576.18
854,23128,19599.13
855,23108,19622.08
856,23092,19645.03
857,23080,19667.98
858,23060,19690.93
859,23048,19713.88
860,23040,19736.83
861,23040,19759.78
862,23032,19782.73
863,23032,19805.68
864,23036,19828.63
865,23036,19851.58
866,23040,19874.53
867,23048,19897.48
868,23056,19920.43
869,23068,19943.38
870,23072,19966.33
871,23080,19989.28
872,23084,20012.23
873,23092,20035.18
874,23100,20058.13
875,23104,20081.08
876,23112,20104.03
877,23124,20126.98
878,23128,20149.93
879,23136,20172.88
880,23148,20195.83
881,23152,20218.78
882,23156,20241.73
883,23164,20264.68
884,23164,20287.63
885,23168,20310.58
886,23168,20333.53
887,23176,20356.48
888,23172,20379.43
889,23172,20402.38
890,23172,20425.33
891,23168,20448.28
892,23172,20471.22
893,23176,20494.17
894,23176,20517.12
895,23176,20540.07
896,23180,20563.02
897,23192,20585.97
898,23196,20608.92
899,23196,20631.87
900,23192,20654.82
901,23180,20677.77
902,23172,20700.72
903,23168,20723.67
904,23164,20746.62
905,23168,20769.57
906,23176,20792.52
907,23180,20815.47
908,23192,20838.42
909,23200,20861.37
910,23212,20884.32
911,23224,20907.27
912,23232,20930.22
913,23240,20953.17
914,23248,20976.12
915,23256,20999.07
916,23264,21022.02
917,23272,21044.97
918,23284,21067.92
919,23292,21090.87
920,23304,21113.82
921,23312,21136.77
922,23324,21159.72
923,23332,21182.67
924,23344,21205.62
925,23360,21228.57
926,23372,21251.52
927,23380,21274.47
928,23388,21297.42
929,23400,21320.37
930,23404,21343.32
931,23416,21366.27
932,23424,21389.22
933,23432,21412.17
934,23436,21435.12
935,23440,21458.07
936,23452,21481.02
937,23456,21503.97
938,23464,21526.92
939,23464,21549.87
940,23464,21572.82
941,23460,21595.77
942,23460,21618.72
943,23456,21641.66
944,23456,21664.61
945,23464,21687.56
946,23468,21710.51
947,23468,21733.46
948,23472,21756.41
949,23472,21779.36
950,23476,21802.31
951,23480,21825.26
952,23488,21848.21
953,23488,21871.16
954,23488,21894.11
955,23496,21917.06
956,23496,21940.01
957,23504,21962.96
958,23512,21985.91
959,23512,22008.86
960,23520,22031.81
961,23524,22054.76
962,23528,22077.71
963,23536,22100.66
964,23540,22123.61
965,23548,22146.56
966,23560,22169.51
967,23576,22192.46
968,23584,22215.41
969,23592,22238.36
970,23596,22261.31
971,23604,22284.26
972,23612,22307.21
973,23620,22330.16
974,23628,22353.11
975,23636,22376.06
976,23644,22399.01
977,23656,22421.96
978,23668,22444.91
979,23684,22467.86
980,23692,22490.81
981,23692,22513.76
982,23704,22536.71
983,23716,22559.66
984,23724,22582.61
985,23736,22605.56
986,23736,22628.51
987,23744,22651.46
988,23744,22674.41
989,23744,22697.36
990,23748,22720.31
991,23748,22743.26
992,23756,22766.21
993,23760,22789.16
994,23772,22812.10
995,23780,22835.05
996,23800,22858.00
997,23808,22880.95
998,23820,22903.90
999,23828,22926.85
1000,23844,22949.80
1001,23852,22972.75
1002,23860,22995.70
1003,23872,23018.65
1004,23880,23041.60
1005,23896,23064.55
1006,23900,23087.50
1007,23916,23110.45
1008,23932,23133.40
1009,23948,23156.35
1010,23960,23179.30
1011,23972,23202.25
1012,23984,23225.20
1013,23996,23248.15
1014,24012,23271.10
1015,24024,23294.05
1016,24036,23317.00
1017,24040,23339.95
1018,24040,23362.90
1019,24044,23385.85
1020,24048,23408.80
1021,24052,23431.75
1022,24060,23454.70
1023,24068,23477.65
1024,24076,23500.60
1025,24084,23523.55
1026,24080,23546.50
1027,24084,23569.45
1028,24088,23592.40
1029,24092,23615.35
1030,24100,23638.30
1031,24104,23661.25
1032,24096,23684.20
1033,24096,23707.15
1034,24096,23730.10
1035,24100,23753.05
1036,24100,23776.00
1037,24100,23798.95
1038,24104,23821.90
1039,24100,23844.85
1040,24096,23867.80
1041,24096,23890.75
1042,24092,23913.70
1043,24088,23936.65
1044,24084,23959.60
1045,24080,23982.54
1046,24072,24005.49
1047,24064,24028.44
1048,24052,24051.39
1049,24048,24074.34
1050,24044,24097.29
1051,24044,24120.24
1052,24044,24143.19
1053,24044,24166.14
1054,24040,24189.09
1055,24036,24212.04
1056,24036,24234.99
1057,24036,24257.94
1058,24032,24280.89
1059,24032,24303.84
1060,24032,24326.79
1061,24032,24349.74
1062,24040,24372.69
1063,24048,24395.64
1064,24056,24418.59
1065,24056,24441.54
1066,24052,24464.49
1067,24040,24487.44
1068,24032,24510.39
1069,24020,24533.34
1070,24000,24556.29
1071,23980,24579.24
1072,23968,24602.19
1073,23960,24625.14
1074,23948,24648.09
1075,23940,24671.04
1076,23932,24693.99
1077,23924,24716.94
1078,23916,24739.89
1079,23908,24762.84
1080,23904,24785.79
1081,23900,24808.74
1082,23892,24831.69
1083,23872,24854.64
1084,23864,24877.59
1085,23864,24900.54
1086,23860,24923.49
1087,23852,24946.44
1088,23844,24969.39
1089,23840,24992.34
1090,23840,25015.29
1091,23848,25038.24
1092,23868,25061.19
1093,23892,25084.14
1094,23908,25107.09
1095,23924,25130.04
1096,23924,25152.98
1097,23924,25175.93
1098,23932,25198.88
1099,23940,25221.83
1100,23956,25244.78
1101,23968,25267.73
1102,23984,25290.68
1103,24000,25313.63
1104,24008,25336.58
1105,24012,25359.53
1106,24008,25382.48
1107,24004,25405.43
1108,24000,25428.38
1109,23992,25451.33
1110,23988,25474.28
1111,23980,25497.23
1112,23968,25520.18
1113,23964,25543.13
1114,23960,25566.08
1115,23956,25589.03
1116,23952,25611.98
1117,23952,25634.93
1118,23956,25657.88
1119,23960,25680.83
1120,23956,25703.78
1121,23960,25726.73
1122,23956,25749.68
1123,23956,25772.63
1124,23952,25795.58
1125,23944,25818.53
1126,23932,25841.48
1127,23924,25864.43
1128,23920,25887.38
1129,23916,25910.33
1130,23908,25933.28
1131,23904,25956.23
1132,23904,25979.18
1133,23900,26002.13
1134,23900,26025.08
1135,23900,26048.03
1136,23900,26070.98
1137,23900,26093.93
1138,23908,26116.88
1139,23912,26139.83
1140,23916,26162.78
1141,23916,26185.73
1142,23916,26208.68
1143,23920,26231.63
1144,23924,26254.58
1145,23920,26277.53
1146,23912,26300.48
1147,23896,26323.42
1148,23892,26346.37
1149,23884,26369.32
1150,23880,26392.27
1151,23876,26415.22
1152,23876,26438.17
1153,23876,26461.12
1154,23872,26484.07
1155,23868,26507.02
1156,23868,26529.97
1157,23868,26552.92
1158,23868,26575.87
1159,23864,26598.82
1160,23864,26621.77
1161,23864,26644.72
1162,23864,26667.67
1163,23860,26690.62
1164,23860,26713.57
1165,23864,26736.52
1166,23864,26759.47
1167,23864,26782.42
1168,23868,26805.37
1169,23864,26828.32
1170,23868,26851.27
1171,23864,26874.22
1172,23864,26897.17
1173,23864,26920.12
1174,23864,26943.07
1175,23868,26966.02
1176,23872,26988.97
1177,23872,27011.92
1178,23868,27034.87
1179,23868,27057.82
1180,23864,27080.77
1181,23868,27103.72
1182,23868,27126.67
1183,23868,27149.62
1184,23864,27172.57
1185,23864,27195.52
1186,23860,27218.47
1187,23856,27241.42
1188,23852,27264.37
1189,23852,27287.32
1190,23848,27310.27
1191,23848,27333.22
1192,23844,27356.17
1193,23840,27379.12
1194,23848,27402.07
1195,23848,27425.02
1196,23852,27447.97
1197,23848,27470.91
1198,23848,27493.86
1199,23844,27516.81
1200,23844,27539.76
1201,23844,27562.71
1202,23848,27585.66
1203,23844,27608.61
1204,23848,27631.56
1205,23856,27654.51
1206,23856,27677.46
1207,23860,27700.41
1208,23860,27723.36
1209,23856,27746.31
1210,23856,27769.26
1211,23856,27792.21
1212,23860,27815.16
1213,23860,27838.11
1214,23860,27861.06
1215,23864,27884.01
1216,23864,27906.96
1217,23864,27929.91
1218,23868,27952.86
1219,23864,27975.81
1220,23860,27998.76
1221,23856,28021.71
1222,23856,28044.66
1223,23856,28067.61
1224,23852,28090.56
1225,23852,28113.51
1226,23856,28136.46
1227,23852,28159.41
1228,23856,28182.36
1229,23856,28205.31
1230,23856,28228.26
1231,23860,28251.21
1232,23856,28274.16
1233,23856,28297.11
1234,23856,28320.06
1235,23852,28343.01
1236,23852,28365.96
1237,23852,28388.91
1238,23848,28411.86
1239,23852,28434.81
1240,23848,28457.76
1241,23848,28480.71
1242,23852,28503.66
1243,23860,28526.61
1244,23868,28549.56
1245,23872,28572.51
1246,23872,28595.46
1247,23872,28618.41
1248,23872,28641.35
1249,23872,28664.30
1250,23872,28687.25
1251,23872,28710.20
1252,23872,28733.15
1253,23872,28756.10
1254,23876,28779.05
1255,23872,28802.00
1256,23872,28824.95
1257,23876,28847.90
1258,23872,28870.85
1259,23876,28893.80
1260,23872,28916.75
1261,23872,28939.70
1262,23872,28962.65
1263,23872,28985.60
1264,23872,29008.55
1265,23876,29031.50
1266,23880,29054.45
1267,23880,29077.40
1268,23880,29100.35
1269,23884,29123.30
1270,23892,29146.25
1271,23900,29169.20
1272,23896,29192.15
1273,23896,29215.10
1274,23900,29238.05
1275,23900,29261.00
1276,23900,29283.95
1277,23900,29306.90
1278,23900,29329.85
1279,23904,29352.80
1280,23908,29375.75
1281,23908,29398.70
1282,23916,29421.65
1283,23916,29444.60
1284,23924,29467.55
1285,23924,29490.50
1286,23932,29513.45
1287,23936,29536.40
1288,23932,29559.35
1289,23932,29582.30
1290,23928,29605.25
1291,23920,29628.20
1292,23916,29651.15
1293,23908,29674.10
1294,23908,29697.05
1295,23908,29720.00
1296,23904,29742.95
1297,23908,29765.90
1298,23904,29788.85
1299,23908,29811.79
1300,23908,29834.74
1301,23908,29857.69
1302,23908,29880.64
1303,23904,29903.59
1304,23908,29926.54
1305,23908,29949.49
1306,23908,29972.44
1307,23908,29995.39
1308,23908,30018.34
1309,23908,30041.29
1310,23908,30064.24
1311,23908,30087.19
1312,23904,30110.14
1313,23904,30133.09
1314,23904,30156.04
1315,23904,30178.99
1316,23908,30201.94
1317,23908,30224.89
1318,23912,30247.84
1319,23916,30270.79
1320,23916,30293.74
1321,23916,30316.69
1322,23920,30339.64
1323,23924,30362.59
1324,23924,30385.54
1325,23920,30408.49
1326,23912,30431.44
1327,23912,30454.39
1328,23908,30477.34
1329,23908,30500.29
1330,23908,30523.24
1331,23904,30546.19
1332,23904,30569.14
1333,23900,30592.09
1334,23904,30615.04
1335,23904,30637.99
1336,23912,30660.94
1337,23912,30683.89
1338,23912,30706.84
1339,23912,30729.79
1340,23916,30752.74
1341,23916,30775.69
1342,23924,30798.64
1343,23924,30821.59
1344,23924,30844.54
1345,23928,30867.49
1346,23928,30890.44
1347,23928,30913.39
1348,23932,30936.34
1349,23928,30959.29
1350,23932,30982.23
1351,23928,31005.18
1352,23932,31028.13
1353,23932,31051.08
1354,23940,31074.03
1355,23948,31096.98
1356,23956,31119.93
1357,23960,31142.88
1358,23960,31165.83
1359,23956,31188.78
1360,23952,31211.73
1361,23936,31234.68
1362,23928,31257.63
1363,23924,31280.58
1364,23920,31303.53
1365,23916,31326.48
1366,23916,31349.43
1367,23920,31372.38
1368,23916,31395.33
1369,23924,31418.28
1370,23928,31441.23
1371,23932,31464.18
1372,23932,31487.13
1373,23932,31510.08
1374,23932,31533.03
1375,23936,31555.98
1376,23936,31578.93
1377,23932,31601.88
1378,23932,31624.83
1379,23932,31647.78
1380,23928,31670.73
1381,23924,31693.68
1382,23928,31716.63
1383,23924,31739.58
1384,23920,31762.53
1385,23916,31785.48
1386,23920,31808.43
1387,23912,31831.38
1388,23908,31854.33
1389,23904,31877.28
1390,23884,31900.23
1391,23868,31923.18
1392,23852,31946.13
1393,23836,31969.08
1394,23820,31992.03
1395,23804,32014.98
1396,23792,32037.93
1397,23780,32060.88
1398,23772,32083.83
1399,23764,32106.78
1400,23760,32129.73
1401,23752,32152.67
1402,23748,32175.62
1403,23748,32198.57
1404,23740,32221.52
1405,23740,32244.47
1406,23732,32267.42
1407,23732,32290.37
1408,23728,32313.32
1409,23728,32336.27
1410,23724,32359.22
1411,23720,32382.17
1412,23728,32405.12
1413,23728,32428.07
1414,23728,32451.02
1415,23732,32473.97
1416,23736,32496.92
1417,23740,32519.87
1418,23744,32542.82
1419,23740,32565.77
1420,23736,32588.72
1421,23732,32611.67
1422,23724,32634.62
1423,23708,32657.57
1424,23692,32680.52
1425,23680,32703.47
1426,23664,32726.42
1427,23648,32749.37
1428,23644,32772.32
1429,23640,32795.27
1430,23636,32818.22
1431,23632,32841.17
1432,23628,32864.12
1433,23632,32887.07
1434,23628,32910.02
1435,23624,32932.97
1436,23620,32955.92
1437,23620,32978.87
1438,23616,33001.82
1439,23616,33024.77
1440,23616,33047.72
1441,23616,33070.67
1442,23616,33093.62
1443,23616,33116.57
1444,23616,33139.52
1445,23616,33162.47
1446,23620,33185.42
1447,23624,33208.37
1448,23624,33231.32
1449,23632,33254.27
1450,23636,33277.22
1451,23644,33300.17
1452,23648,33323.11
1453,23656,33346.06
1454,23652,33369.01
1455,23660,33391.96
1456,23660,33414.91
1457,23664,33437.86
1458,23668,33460.81
1459,23668,33483.76
1460,23656,33506.71
1461,23640,33529.66
1462,23624,33552.61
1463,23604,33575.56
1464,23596,33598.51
1465,23584,33621.46
1466,23576,33644.41
1467,23568,33667.36
1468,23564,33690.31
1469,23564,33713.26
1470,23564,33736.21
1471,23560,33759.16
1472,23556,33782.11
1473,23552,33805.06
1474,23552,33828.01
1475,23552,33850.96
1476,23548,33873.91
1477,23544,33896.86
1478,23548,33919.81
1479,23552,33942.76
1480,23560,33965.71
1481,23564,33988.66
1482,23564,34011.61
1483,23568,34034.56
1484,23568,34057.51
1485,23572,34080.46
1486,23576,34103.41
1487,23580,34126.36
1488,23580,34149.31
1489,23580,34172.26
1490,23588,34195.21
1491,23588,34218.16
1492,23592,34241.11
1493,23592,34264.06
1494,23596,34287.01
1495,23600,34309.96
1496,23600,34332.91
1497,23608,34355.86
1498,23616,34378.81
1499,23612,34401.76
1500,23604,34424.71
1501,23592,34447.66
1502,23572,34470.61
1503,23556,34493.55
1504,23540,34516.50
1505,23532,34539.45
1506,23524,34562.40
1507,23524,34585.35
1508,23524,34608.30
1509,23520,34631.25
1510,23516,34654.20
1511,23516,34677.15
1512,23516,34700.10
1513,23516,34723.05
1514,23512,34746.00
1515,23512,34768.95
1516,23508,34791.90
1517,23504,34814.85
1518,23504,34837.80
1519,23500,34860.75
1520,23500,34883.70
1521,23500,34906.65
1522,23500,34929.60
1523,23508,34952.55
1524,23508,34975.50
1525,23512,34998.45
1526,23516,35021.40
1527,23520,35044.35
1528,23524,35067.30
1529,23528,35090.25
1530,23528,35113.20
1531,23536,35136.15
1532,23540,35159.10
1533,23540,35182.05
1534,23544,35205.00
1535,23548,35227.95
1536,23552,35250.90
1537,23552,35273.85
1538,23548,35296.80
1539,23536,35319.75
1540,23520,35342.70
1541,23504,35365.65
1542,23488,35388.60
1543,23472,35411.55
1544,23468,35434.50
1545,23464,35457.45
1546,23460,35480.40
1547,23460,35503.35
1548,23460,35526.30
1549,23464,35549.25
1550,23464,35572.20
1551,23468,35595.15
1552,23464,35618.10
1553,23464,35641.05
1554,23460,35663.99
1555,23460,35686.94
1556,23460,35709.89
1557,23460,35732.84
1558,23464,35755.79
1559,23464,35778.74
1560,23468,35801.69
1561,23468,35824.64
1562,23476,35847.59
1563,23476,35870.54
1564,23476,35893.49
1565,23484,35916.44
1566,23492,35939.39
1567,23500,35962.34
1568,23504,35985.29
1569,23508,36008.24
1570,23508,36031.19
1571,23512,36054.14
1572,23516,36077.09
1573,23528,36100.04
1574,23536,36122.99
1575,23532,36145.94
1576,23524,36168.89
1577,23512,36191.84
1578,23492,36214.79
1579,23472,36237.74
1580,23456,36260.69
1581,23440,36283.64
1582,23428,36306.59
1583,23428,36329.54
1584,23420,36352.49
1585,23420,36375.44
1586,23420,36398.39
1587,23416,36421.34
1588,23420,36444.29
1589,23420,36467.24
1590,23420,36490.19
1591,23416,36513.14
1592,23412,36536.09
1593,23412,36559.04
1594,23408,36581.99
1595,23408,36604.94
1596,23412,36627.89
1597,23416,36650.84
1598,23416,36673.79
1599,23420,36696.74
1600,23420,36719.69
1601,23428,36742.64
1602,23432,36765.59
1603,23432,36788.54
1604,23432,36811.49
1605,23444,36834.43
1606,23452,36857.38
1607,23452,36880.33
1608,23460,36903.28
1609,23464,36926.23
1610,23472,36949.18
1611,23476,36972.13
1612,23480,36995.08
1613,23488,37018.03
1614,23492,37040.98
1615,23496,37063.93
1616,23492,37086.88
1617,23476,37109.83
1618,23460,37132.78
1619,23440,37155.73
1620,23420,37178.68
1621,23404,37201.63
1622,23396,37224.58
1623,23388,37247.53
1624,23380,37270.48
1625,23376,37293.43
1626,23368,37316.38
1627,23368,37339.33
1628,23368,37362.28
1629,23364,37385.23
1630,23364,37408.18
1631,23364,37431.13
1632,23356,37454.08
1633,23352,37477.03
1634,23344,37499.98
1635,23348,37522.93
1636,23344,37545.88
1637,23344,37568.83
1638,23348,37591.78
1639,23348,37614.73
1640,23356,37637.68
1641,23356,37660.63
1642,23360,37683.58
1643,23360,37706.53
1644,23364,37729.48
1645,23372,37752.43
1646,23376,37775.38
1647,23380,37798.33
1648,23384,37821.28
1649,23388,37844.23
1650,23392,37867.18
1651,23400,37890.13
1652,23400,37913.08
1653,23396,37936.03
1654,23384,37958.98
1655,23364,37981.93
1656,23344,38004.87
1657,23324,38027.82
1658,23304,38050.77
1659,23296,38073.72
1660,23288,38096.67
1661,23284,38119.62
1662,23276,38142.57
1663,23272,38165.52
1664,23268,38188.47
1665,23264,38211.42
1666,23268,38234.37
1667,23264,38257.32
1668,23264,38280.27
1669,23260,38303.22
1670,23260,38326.17
1671,23252,38349.12
1672,23252,38372.07
1673,23244,38395.02
1674,23244,38417.97
1675,23248,38440.92
1676,23248,38463.87
1677,23256,38486.82
1678,23260,38509.77
1679,23264,38532.72
1680,23268,38555.67
1681,23276,38578.62
1682,23280,38601.57
1683,23288,38624.52
1684,23296,38647.47
1685,23300,38670.42
1686,23308,38693.37
1687,23312,38716.32
1688,23312,38739.27
1689,23300,38762.22
1690,23288,38785.17
1691,23268,38808.12
1692,23252,38831.07
1693,23236,38854.02
1694,23224,38876.97
1695,23220,38899.92
1696,23216,38922.87
1697,23220,38945.82
1698,23220,38968.77
1699,23224,38991.72
1700,23232,39014.67
1701,23232,39037.62
1702,23236,39060.57
1703,23236,39083.52
1704,23228,39106.47
1705,23224,39129.42
1706,23220,39152.37
1707,23212,39175.31
1708,23216,39198.26
1709,23220,39221.21
1710,23220,39244.16
1711,23220,39267.11
1712,23224,39290.06
1713,23228,39313.01
1714,23228,39335.96
1715,23232,39358.91
1716,23240,39381.86
1717,23244,39404.81
1718,23256,39427.76
1719,23260,39450.71
1720,23268,39473.66
1721,23276,39496.61
1722,23272,39519.56
1723,23260,39542.51
1724,23244,39565.46
1725,23216,39588.41
1726,23196,39611.36
1727,23176,39634.31
1728,23164,39657.26
1729,23156,39680.21
1730,23152,39703.16
1731,23152,39726.11
1732,23144,39749.06
1733,23144,39772.01
1734,23144,39794.96
1735,23140,39817.91
1736,23132,39840.86
1737,23128,39863.81
1738,23128,39886.76
1739,23124,39909.71
1740,23120,39932.66
1741,23112,39955.61
1742,23108,39978.56
1743,23108,40001.51
1744,23108,40024.46
1745,23108,40047.41
1746,23112,40070.36
1747,23112,40093.31
1748,23116,40116.26
1749,23124,40139.21
1750,23136,40162.16
1751,23140,40185.11
1752,23140,40208.06
1753,23148,40231.01
1754,23148,40253.96
1755,23148,40276.91
1756,23140,40299.86
1757,23120,40322.81
1758,23096,40345.75
1759,23068,40368.70
1760,23044,40391.65
1761,23028,40414.60
1762,23012,40437.55
1763,23000,40460.50
1764,22992,40483.45
1765,22984,40506.40
1766,22980,40529.35
1767,22976,40552.30
1768,22980,40575.25
1769,22976,40598.20
1770,22976,40621.15
1771,22976,40644.10
1772,22968,40667.05
1773,22964,40690.00
1774,22960,40712.95
1775,22956,40735.90
1776,22956,40758.85
1777,22960,40781.80
1778,22964,40804.75
1779,22968,40827.70
1780,22968,40850.65
1781,22972,40873.60
1782,22980,40896.55
1783,22988,40919.50
1784,22992,40942.45
1785,22996,40965.40
1786,23000,40988.35
1787,23004,41011.30
1788,23012,41034.25
1789,23016,41057.20
1790,23020,41080.15
1791,23024,41103.10
1792,23020,41126.05
1793,23004,41149.00
1794,22980,41171.95
1795,22948,41194.90
1796,22920,41217.85
1797,22900,41240.80
1798,22880,41263.75
1799,22868,41286.70
1800,22860,41309.65
1801,22848,41332.60
1802,22840,41355.55
1803,22832,41378.50
1804,22828,41401.45
1805,22824,41424.40
1806,22816,41447.35
1807,22812,41470.30
1808,22804,41493.25
1809,22800,41516.19
1810,22792,41539.14
1811,22780,41562.09
1812,22776,41585.04
1813,22772,41607.99
1814,22772,41630.94
1815,22772,41653.89
1816,22776,41676.84
1817,22776,41699.79
1818,22788,41722.74
1819,22796,41745.69
1820,22804,41768.64
1821,22808,41791.59
1822,22812,41814.54
1823,22820,41837.49
1824,22824,41860.44
1825,22832,41883.39
1826,22832,41906.34
1827,22840,41929.29
1828,22844,41952.24
1829,22840,41975.19
1830,22828,41998.14
1831,22804,42021.09
1832,22776,42044.04
1833,22752,42066.99
1834,22728,42089.94
1835,22716,42112.89
1836,22704,42135.84
1837,22700,42158.79
1838,22700,42181.74
1839,22696,42204.69
1840,22696,42227.64
1841,22696,42250.59
1842,22704,42273.54
1843,22708,42296.49
1844,22708,42319.44
1845,22708,42342.39
1846,22708,42365.34
1847,22704,42388.29
1848,22712,42411.24
1849,22712,42434.19
1850,22720,42457.14
1851,22720,42480.09
1852,22728,42503.04
1853,22732,42525.99
1854,22744,42548.94
1855,22752,42571.89
1856,22764,42594.84
1857,22776,42617.79
1858,22784,42640.74
1859,22796,42663.69
1860,22812,42686.63
1861,22820,42709.58
1862,22828,42732.53
1863,22836,42755.48
1864,22840,42778.43
1865,22848,42801.38
1866,22840,42824.33
1867,22824,42847.28
1868,22812,42870.23
1869,22788,42893.18
1870,22772,42916.13
1871,22764,42939.08
1872,22756,42962.03
1873,22752,42984.98
1874,22748,43007.93
1875,22748,43030.88
1876,22752,43053.83
1877,22752,43076.78
1878,22760,43099.73
1879,22764,43122.68
1880,22768,43145.63
1881,22768,43168.58
1882,22772,43191.53
1883,22768,43214.48
1884,22772,43237.43
1885,22772,43260.38
1886,22776,43283.33
1887,22780,43306.28
1888,22784,43329.23
1889,22792,43352.18
1890,22800,43375.13
1891,22808,43398.08
1892,22820,43421.03
1893,22832,43443.98
1894,22836,43466.93
1895,22844,43489.88
1896,22852,43512.83
1897,22860,43535.78
1898,22872,43558.73
1899,22884,43581.68
1900,22904,43604.63
1901,22912,43627.58
1902,22908,43650.53
1903,22892,43673.48
1904,22872,43696.43
1905,22852,43719.38
1906,22832,43742.33
1907,22816,43765.28
1908,22804,43788.23
1909,22804,43811.18
1910,22804,43834.13
1911,22804,43857.07
1912,22804,43880.02
1913,22804,43902.97
1914,22804,43925.92
1915,22804,43948.87
1916,22804,43971.82
1917,22800,43994.77
1918,22792,44017.72
1919,22792,44040.67
1920,22792,44063.62
1921,22792,44086.57
1922,22788,44109.52
1923,22792,44132.47
1924,22800,44155.42
1925,22804,44178.37
1926,22812,44201.32
1927,22820,44224.27
1928,22828,44247.22
1929,22840,44270.17
1930,22848,44293.12
1931,22852,44316.07
1932,22864,44339.02
1933,22868,44361.97
1934,22876,44384.92
1935,22884,44407.87
1936,22892,44430.82
1937,22896,44453.77
1938,22892,44476.72
1939,22876,44499.67
1940,22848,44522.62
1941,22820,44545.57
1942,22796,44568.52
1943,22772,44591.47
1944,22756,44614.42
1945,22744,44637.37
1946,22736,44660.32
1947,22732,44683.27
1948,22728,44706.22
1949,22732,44729.17
1950,22736,44752.12
1951,22740,44775.07
1952,22740,44798.02
1953,22740,44820.97
1954,22744,44843.92
1955,22740,44866.87
1956,22740,44889.82
1957,22744,44912.77
1958,22752,44935.72
1959,22756,44958.67
1960,22768,44981.62
1961,22776,45004.56
1962,22788,45027.51
1963,22796,45050.46
1964,22804,45073.41
1965,22816,45096.36
1966,22828,45119.31
1967,22840,45142.26
1968,22852,45165.21
1969,22864,45188.16
1970,22876,45211.11
1971,22888,45234.06
1972,22896,45257.01
1973,22904,45279.96
1974,22916,45302.91
1975,22924,45325.86
1976,22928,45348.81
1977,22920,45371.76
1978,22908,45394.71
1979,22880,45417.66
1980,22856,45440.61
1981,22828,45463.56
1982,22812,45486.51
1983,22800,45509.46
1984,22792,45532.41
1985,22788,45555.36
1986,22780,45578.31
1987,22784,45601.26
1988,22780,45624.21
1989,22780,45647.16
1990,22792,45670.11
1991,22792,45693.06
1992,22796,45716.01
1993,22796,45738.96
1994,22796,45761.91
1995,22800,45784.86
1996,22800,45807.81
1997,22804,45830.76
1998,22808,45853.71
1999,22820,45876.66
2000,22824,45899.61
2001,22832,45922.56
2002,22844,45945.51
2003,22852,45968.46
2004,22868,45991.41
2005,22876,46014.36
2006,22888,46037.31
2007,22900,46060.26
2008,22904,46083.21
2009,22916,46106.16
2010,22932,46129.11
2011,22940,46152.06
2012,22952,46175.00
2013,22960,46197.95
2014,22964,46220.90
2015,22976,46243.85
2016,22988,46266.80
2017,22992,46289.75
2018,22992,46312.70
2019,22980,46335.65
2020,22960,46358.60
2021,22932,46381.55
2022,22900,46404.50
2023,22872,46427.45
2024,22856,46450.40
2025,22836,46473.35
2026,22832,46496.30
2027,22828,46519.25
2028,22824,46542.20
2029,22828,46565.15
2030,22828,46588.10
2031,22828,46611.05
2032,22832,46634.00
2033,22832,46656.95
2034,22832,46679.90
2035,22832,46702.85
2036,22836,46725.80
2037,22836,46748.75
2038,22832,46771.70
2039,22836,46794.65
2040,22844,46817.60
2041,22848,46840.55
2042,22852,46863.50
2043,22860,46886.45
2044,22872,46909.40
2045,22880,46932.35
2046,22892,46955.30
2047,22904,46978.25
2048,22916,47001.20
2049,22920,47024.15
2050,22932,47047.10
2051,22940,47070.05
2052,22948,47093.00
2053,22956,47115.95
2054,22964,47138.90
2055,22972,47161.85
2056,22984,47184.80
2057,22992,47207.75
2058,22984,47230.70
2059,22968,47253.65
2060,22948,47276.60
2061,22920,47299.55
2062,22896,47322.50
2063,22880,47345.44
2064,22868,47368.39
2065,22860,47391.34
2066,22860,47414.29
2067,22856,47437.24
2068,22860,47460.19
2069,22864,47483.14
2070,22868,47506.09
2071,22868,47529.04
2072,22872,47551.99
2073,22872,47574.94
2074,22872,47597.89
2075,22872,47620.84
2076,22876,47643.79
2077,22876,47666.74
2078,22880,47689.69
2079,22884,47712.64
2080,22892,47735.59
2081,22900,47758.54
2082,22908,47781.49
2083,22916,47804.44
2084,22928,47827.39
2085,22936,47850.34
2086,22948,47873.29
2087,22956,47896.24
2088,22964,47919.19
2089,22972,47942.14
2090,22984,47965.09
2091,22992,47988.04
2092,23004,48010.99
2093,23008,48033.94
2094,23016,48056.89
2095,23008,48079.84
2096,23000,48102.79
2097,22980,48125.74
2098,22952,48148.69
2099,22928,48171.64
2100,22912,48194.59
2101,22896,48217.54
2102,22892,48240.49
2103,22884,48263.44
2104,22880,48286.39
2105,22880,48309.34
2106,22884,48332.29
2107,22884,48355.24
2108,22888,48378.19
2109,22888,48401.14
2110,22888,48424.09
2111,22880,48447.04
2112,22876,48469.99
2113,22868,48492.94
2114,22864,48515.88
2115,22864,48538.83
2116,22868,48561.78
2117,22872,48584.73
2118,22880,48607.68
2119,22888,48630.63
2120,22896,48653.58
2121,22904,48676.53
2122,22912,48699.48
2123,22920,48722.43
2124,22924,48745.38
2125,22932,48768.33
2126,22944,48791.28
2127,22952,48814.23
2128,22956,48837.18
2129,22964,48860.13
2130,22968,48883.08
2131,22968,48906.03
2132,22952,48928.98
2133,22928,48951.93
2134,22896,48974.88
2135,22872,48997.83
2136,22848,49020.78
2137,22828,49043.73
2138,22820,49066.68
2139,22808,49089.63
2140,22808,49112.58
2141,22804,49135.53
2142,22804,49158.48
2143,22800,49181.43
2144,22804,49204.38
2145,22808,49227.33
2146,22808,49250.28
2147,22812,49273.23
2148,22812,49296.18
2149,22812,49319.13
2150,22812,49342.08
2151,22808,49365.03
2152,22808,49387.98
2153,22816,49410.93
2154,22820,49433.88
2155,22828,49456.83
2156,22832,49479.78
2157,22848,49502.73
2158,22856,49525.68
2159,22864,49548.63
2160,22876,49571.58
2161,22888,49594.53
2162,22896,49617.48
2163,22908,49640.43
2164,22916,49663.38
2165,22924,49686.32
2166,22936,49709.27
2167,22944,49732.22
2168,22956,49755.17
2169,22964,49778.12
2170,22968,49801.07
2171,22960,49824.02
2172,22940,49846.97
2173,22908,49869.92
2174,22880,49892.87
2175,22848,49915.82
2176,22820,49938.77
2177,22808,49961.72
2178,22796,49984.67
2179,22788,50007.62
2180,22784,50030.57
2181,22780,50053.52
2182,22776,50076.47
2183,22776,50099.42
2184,22780,50122.37
2185,22776,50145.32
2186,22780,50168.27
2187,22780,50191.22
2188,22780,50214.17
2189,22780,50237.12
2190,22776,50260.07
2191,22780,50283.02
2192,22780,50305.97
2193,22784,50328.92
2194,22792,50351.87
2195,22796,50374.82
2196,22808,50397.77
2197,22820,50420.72
2198,22832,50443.67
2199,22844,50466.62
2200,22852,50489.57
2201,22864,50512.52
2202,22876,50535.47
2203,22884,50558.42
2204,22892,50581.37
2205,22904,50604.32
2206,22916,50627.27
2207,22924,50650.22
2208,22932,50673.17
2209,22948,50696.12
2210,22948,50719.07
2211,22940,50742.02
2212,22920,50764.97
2213,22896,50787.92
2214,22868,50810.87
2215,22840,50833.82
2216,22828,50856.76
2217,22816,50879.71
2218,22804,50902.66
2219,22804,50925.61
2220,22800,50948.56
2221,22800,50971.51
2222,22800,50994.46
2223,22804,51017.41
2224,22804,51040.36
2225,22808,51063.31
2226,22808,51086.26
2227,22808,51109.21
2228,22808,51132.16
2229,22808,51155.11
2230,22800,51178.06
2231,22804,51201.01
2232,22808,51223.96
2233,22808,51246.91
2234,22816,51269.86
2235,22820,51292.81
2236,22832,51315.76
2237,22840,51338.71
2238,22852,51361.66
2239,22864,51384.61
2240,22872,51407.56
2241,22880,51430.51
2242,22888,51453.46
2243,22896,51476.41
2244,22908,51499.36
2245,22920,51522.31
2246,22924,51545.26
2247,22920,51568.21
2248,22900,51591.16
2249,22872,51614.11
2250,22844,51637.06
2251,22816,51660.01
2252,22796,51682.96
2253,22788,51705.91
2254,22780,51728.86
2255,22776,51751.81
2256,22780,51774.76
2257,22784,51797.71
2258,22784,51820.66
2259,22796,51843.61
2260,22796,51866.56
2261,22800,51889.51
2262,22800,51912.46
2263,22796,51935.41
2264,22796,51958.36
2265,22788,51981.31
2266,22792,52004.26
2267,22796,52027.20
2268,22800,52050.15
2269,22804,52073.10
2270,22808,52096.05
2271,22812,52119.00
2272,22824,52141.95
2273,22832,52164.90
2274,22840,52187.85
2275,22852,52210.80
2276,22860,52233.75
2277,22872,52256.70
2278,22880,52279.65
2279,22892,52302.60
2280,22904,52325.55
2281,22912,52348.50
2282,22908,52371.45
2283,22896,52394.40
2284,22868,52417.35
2285,22840,52440.30
2286,22812,52463.25
2287,22788,52486.20
2288,22776,52509.15
2289,22764,52532.10
2290,22764,52555.05
2291,22760,52578.00
2292,22764,52600.95
2293,22764,52623.90
2294,22772,52646.85
2295,22776,52669.80
2296,22784,52692.75
2297,22784,52715.70
2298,22780,52738.65
2299,22780,52761.60
2300,22776,52784.55
2301,22772,52807.50
2302,22772,52830.45
2303,22776,52853.40
2304,22780,52876.35
2305,22788,52899.30
2306,22792,52922.25
2307,22804,52945.20
2308,22812,52968.15
2309,22820,52991.10
2310,22828,53014.05
2311,22836,53037.00
2312,22848,53059.95
2313,22852,53082.90
2314,22864,53105.85
2315,22872,53128.80
2316,22880,53151.75
2317,22888,53174.70
2318,22888,53197.64
2319,22876,53220.59
2320,22848,53243.54
2321,22812,53266.49
2322,22776,53289.44
2323,22748,53312.39
2324,22732,53335.34
2325,22720,53358.29
2326,22708,53381.24
2327,22708,53404.19
2328,22700,53427.14
2329,22704,53450.09
2330,22704,53473.04
2331,22712,53495.99
2332,22712,53518.94
2333,22716,53541.89
2334,22724,53564.84
2335,22720,53587.79
2336,22720,53610.74
2337,22720,53633.69
2338,22716,53656.64
2339,22720,53679.59
2340,22724,53702.54
2341,22732,53725.49
2342,22732,53748.44
2343,22744,53771.39
2344,22752,53794.34
2345,22764,53817.29
2346,22776,53840.24
2347,22788,53863.19
2348,22796,53886.14
2349,22808,53909.09
2350,22816,53932.04
2351,22820,53954.99
2352,22828,53977.94
2353,22836,54000.89
2354,22844,54023.84
2355,22856,54046.79
2356,22856,54069.74
2357,22844,54092.69
2358,22816,54115.64
2359,22776,54138.59
2360,22740,54161.54
2361,22708,54184.49
2362,22680,54207.44
2363,22668,54230.39
2364,22664,54253.34
2365,22664,54276.29
2366,22660,54299.24
2367,22660,54322.19
2368,22660,54345.14
2369,22668,54368.08
2370,22676,54391.03
2371,22676,54413.98
2372,22676,54436.93
2373,22680,54459.88
2374,22680,54482.83
2375,22680,54505.78
2376,22676,54528.73
2377,22684,54551.68
2378,22688,54574.63
2379,22692,54597.58
2380,22700,54620.53
2381,22704,54643.48
2382,22712,54666.43
2383,22724,54689.38
2384,22732,54712.33
2385,22740,54735.28
2386,22748,54758.23
2387,22760,54781.18
2388,22768,54804.13
2389,22780,54827.08
2390,22792,54850.03
2391,22800,54872.98
2392,22808,54895.93
2393,22816,54918.88
2394,22824,54941.83
2395,22832,54964.78
2396,22832,54987.73
2397,22808,55010.68
2398,22776,55033.63
2399,22744,55056.58
2400,22704,55079.53
2401,22676,55102.48
2402,22656,55125.43
2403,22648,55148.38
2404,22644,55171.33
2405,22640,55194.28
2406,22640,55217.23
2407,22644,55240.18
2408,22644,55263.13
2409,22648,55286.08
2410,22652,55309.03
2411,22656,55331.98
2412,22652,55354.93
2413,22652,55377.88
2414,22652,55400.83
2415,22652,55423.78
2416,22652,55446.73
2417,22656,55469.68
2418,22660,55492.63
2419,22664,55515.58
2420,22672,55538.52
2421,22676,55561.47
2422,22688,55584.42
2423,22692,55607.37
2424,22708,55630.32
2425,22716,55653.27
2426,22728,55676.22
2427,22740,55699.17
2428,22748,55722.12
2429,22752,55745.07
2430,22760,55768.02
2431,22768,55790.97
2432,22780,55813.92
2433,22788,55836.87
2434,22792,55859.82
2435,22780,55882.77
2436,22756,55905.72
2437,22720,55928.67
2438,22688,55951.62
2439,22656,55974.57
2440,22636,55997.52
2441,22620,56020.47
2442,22616,56043.42
2443,22616,56066.37
2444,22620,56089.32
2445,22628,56112.27
2446,22636,56135.22
2447,22644,56158.17
2448,22652,56181.12
2449,22652,56204.07
2450,22652,56227.02
2451,22656,56249.97
2452,22652,56272.92
2453,22652,56295.87
2454,22660,56318.82
2455,22668,56341.77
2456,22672,56364.72
2457,22680,56387.67
2458,22692,56410.62
2459,22700,56433.57
2460,22704,56456.52
2461,22720,56479.47
2462,22728,56502.42
2463,22740,56525.37
2464,22752,56548.32
2465,22760,56571.27
2466,22772,56594.22
2467,22780,56617.17
2468,22792,56640.12
2469,22796,56663.07
2470,22812,56686.02
2471,22816,56708.96
2472,22804,56731.91
2473,22788,56754.86
2474,22756,56777.81
2475,22720,56800.76
2476,22692,56823.71
2477,22668,56846.66
2478,22656,56869.61
2479,22644,56892.56
2480,22644,56915.51
2481,22644,56938.46
2482,22652,56961.41
2483,22660,56984.36
2484,22672,57007.31
2485,22684,57030.26
2486,22692,57053.21
2487,22696,57076.16
2488,22688,57099.11
2489,22684,57122.06
2490,22688,57145.01
2491,22684,57167.96
2492,22692,57190.91
2493,22692,57213.86
2494,22704,57236.81
2495,22708,57259.76
2496,22716,57282.71
2497,22728,57305.66
2498,22736,57328.61
2499,22748,57351.56
2500,22752,57374.51
2501,22764,57397.46
2502,22764,57420.41
2503,22776,57443.36
2504,22780,57466.31
2505,22792,57489.26
2506,22804,57512.21
2507,22808,57535.16
2508,22808,57558.11
2509,22788,57581.06
2510,22756,57604.01
2511,22712,57626.96
2512,22680,57649.91
2513,22648,57672.86
2514,22620,57695.81
2515,22608,57718.76
2516,22600,57741.71
2517,22600,57764.66
2518,22600,57787.61
2519,22604,57810.56
2520,22608,57833.51
2521,22612,57856.46
2522,22624,57879.40
2523,22628,57902.35
2524,22632,57925.30
2525,22632,57948.25
2526,22632,57971.20
2527,22628,57994.15
2528,22628,58017.10
2529,22636,58040.05
2530,22644,58063.00
2531,22652,58085.95
2532,22660,58108.90
2533,22672,58131.85
2534,22680,58154.80
2535,22692,58177.75
2536,22700,58200.70
2537,22712,58223.65
2538,22712,58246.60
2539,22720,58269.55
2540,22724,58292.50
2541,22732,58315.45
2542,22736,58338.40
2543,22744,58361.35
2544,22756,58384.30
2545,22768,58407.25
2546,22772,58430.20
2547,22768,58453.15
2548,22748,58476.10
2549,22708,58499.05
2550,22664,58522.00
2551,22624,58544.95
2552,22588,58567.90
2553,22568,58590.85
2554,22552,58613.80
2555,22544,58636.75
2556,22544,58659.70
2557,22544,58682.65
2558,22548,58705.60
2559,22556,58728.55
2560,22560,58751.50
2561,22564,58774.45
2562,22572,58797.40
2563,22576,58820.35
2564,22580,58843.30
2565,22572,58866.25
2566,22568,58889.20
2567,22568,58912.15
2568,22572,58935.10
2569,22572,58958.05
2570,22584,58981.00
2571,22588,59003.95
2572,22600,59026.90
2573,22612,59049.84
2574,22624,59072.79
2575,22632,59095.74
2576,22640,59118.69
2577,22652,59141.64
2578,22660,59164.59
2579,22668,59187.54
2580,22672,59210.49
2581,22680,59233.44
2582,22692,59256.39
2583,22700,59279.34
2584,22708,59302.29
2585,22724,59325.24
2586,22720,59348.19
2587,22704,59371.14
2588,22672,59394.09
2589,22628,59417.04
2590,22584,59439.99
2591,22548,59462.94
2592,22524,59485.89
2593,22512,59508.84
2594,22508,59531.79
2595,22504,59554.74
2596,22500,59577.69
2597,22504,59600.64
2598,22512,59623.59
2599,22516,59646.54
2600,22524,59669.49
2601,22528,59692.44
2602,22532,59715.39
2603,22536,59738.34
2604,22540,59761.29
2605,22536,59784.24
2606,22536,59807.19
2607,22540,59830.14
2608,22548,59853.09
2609,22556,59876.04
2610,22564,59898.99
2611,22576,59921.94
2612,22584,59944.89
2613,22600,59967.84
2614,22612,59990.79
2615,22628,60013.74
2616,22640,60036.69
2617,22648,60059.64
2618,22660,60082.59
2619,22668,60105.54
2620,22676,60128.49
2621,22684,60151.44
2622,22688,60174.39
2623,22696,60197.34
2624,22704,60220.28
2625,22700,60243.23
2626,22684,60266.18
2627,22644,60289.13
2628,22604,60312.08
2629,22568,60335.03
2630,22540,60357.98
2631,22520,60380.93
2632,22512,60403.88
2633,22508,60426.83
2634,22512,60449.78
2635,22520,60472.73
2636,22528,60495.68
2637,22536,60518.63
2638,22544,60541.58
2639,22556,60564.53
2640,22560,60587.48
2641,22560,60610.43
2642,22564,60633.38
2643,22564,60656.33
2644,22564,60679.28
2645,22572,60702.23
2646,22576,60725.18
2647,22584,60748.13
2648,22596,60771.08
2649,22604,60794.03
2650,22616,60816.98
2651,22632,60839.93
2652,22644,60862.88
2653,22660,60885.83
2654,22672,60908.78
2655,22680,60931.73
2656,22688,60954.68
2657,22700,60977.63
2658,22704,61000.58
2659,22712,61023.53
2660,22716,61046.48
2661,22720,61069.43
2662,22704,61092.38
2663,22680,61115.33
2664,22640,61138.28
2665,22600,61161.23
2666,22568,61184.18
2667,22544,61207.13
2668,22524,61230.08
2669,22520,61253.03
2670,22524,61275.98
2671,22532,61298.93
2672,22540,61321.88
2673,22548,61344.83
2674,22560,61367.78
2675,22564,61390.72
2676,22568,61413.67
2677,22572,61436.62
2678,22572,61459.57
2679,22572,61482.52
2680,22572,61505.47
2681,22576,61528.42
2682,22584,61551.37
2683,22588,61574.32
2684,22600,61597.27
2685,22608,61620.22
2686,22616,61643.17
2687,22632,61666.12
2688,22640,61689.07
2689,22656,61712.02
2690,22668,61734.97
2691,22680,61757.92
2692,22692,61780.87
2693,22704,61803.82
2694,22712,61826.77
2695,22720,61849.72
2696,22732,61872.67
2697,22736,61895.62
2698,22740,61918.57
2699,22716,61941.52
2700,22688,61964.47
2701,22644,61987.42
2702,22600,62010.37
2703,22560,62033.32
2704,22532,62056.27
2705,22512,62079.22
2706,22500,62102.17
2707,22496,62125.12
2708,22496,62148.07
2709,22504,62171.02
2710,22508,62193.97
2711,22516,62216.92
2712,22528,62239.87
2713,22536,62262.82
2714,22540,62285.77
2715,22544,62308.72
2716,22544,62331.67
2717,22544,62354.62
2718,22548,62377.57
2719,22556,62400.52
2720,22564,62423.47
2721,22572,62446.42
2722,22584,62469.37
2723,22596,62492.32
2724,22608,62515.27
2725,22620,62538.21
2726,22636,62561.16
2727,22644,62584.11
2728,22656,62607.06
2729,22672,62630.01
2730,22680,62652.96
2731,22688,62675.91
2732,22700,62698.86
2733,22704,62721.81
2734,22716,62744.76
2735,22720,62767.71
2736,22728,62790.66
2737,22720,62813.61
2738,22700,62836.56
2739,22664,62859.51
2740,22620,62882.46
2741,22572,62905.41
2742,22532,62928.36
2743,22504,62951.31
2744,22484,62974.26
2745,22472,62997.21
2746,22468,63020.16
2747,22468,63043.11
2748,22468,63066.06
2749,22476,63089.01
2750,22484,63111.96
2751,22492,63134.91
2752,22500,63157.86
2753,22508,63180.81
2754,22508,63203.76
2755,22512,63226.71
2756,22516,63249.66
2757,22516,63272.61
2758,22516,63295.56
2759,22524,63318.51
2760,22536,63341.46
2761,22544,63364.41
2762,22556,63387.36
2763,22572,63410.31
2764,22580,63433.26
2765,22600,63456.21
2766,22616,63479.16
2767,22628,63502.11
2768,22644,63525.06
2769,22656,63548.01
2770,22668,63570.96
2771,22680,63593.91
2772,22696,63616.86
2773,22700,63639.81
2774,22712,63662.76
2775,22724,63685.71
2776,22728,63708.65
2777,22720,63731.60
2778,22692,63754.55
2779,22648,63777.50
2780,22604,63800.45
2781,22556,63823.40
2782,22528,63846.35
2783,22508,63869.30
2784,22492,63892.25
2785,22488,63915.20
2786,22488,63938.15
2787,22484,63961.10
2788,22492,63984.05
2789,22504,64007.00
2790,22516,64029.95
2791,22524,64052.90
2792,22532,64075.85
2793,22536,64098.80
2794,22528,64121.75
2795,22532,64144.70
2796,22532,64167.65
2797,22536,64190.60
2798,22540,64213.55
2799,22544,64236.50
2800,22556,64259.45
2801,22568,64282.40
2802,22588,64305.35
2803,22600,64328.30
2804,22612,64351.25
2805,22624,64374.20
2806,22636,64397.15
2807,22652,64420.10
2808,22668,64443.05
2809,22680,64466.00
2810,22692,64488.95
2811,22704,64511.90
2812,22708,64534.85
2813,22700,64557.80
2814,22680,64580.75
2815,22640,64603.70
2816,22600,64626.65
2817,22564,64649.60
2818,22532,64672.55
2819,22512,64695.50
2820,22512,64718.45
2821,22504,64741.40
2822,22512,64764.35
2823,22520,64787.30
2824,22532,64810.25
2825,22544,64833.20
2826,22548,64856.15
2827,22560,64879.09
2828,22560,64902.04
2829,22560,64924.99
2830,22560,64947.94
2831,22556,64970.89
2832,22556,64993.84
2833,22556,65016.79
2834,22560,65039.74
2835,22568,65062.69
2836,22576,65085.64
2837,22588,65108.59
2838,22600,65131.54
2839,22612,65154.49
2840,22628,65177.44
2841,22636,65200.39
2842,22652,65223.34
2843,22664,65246.29
2844,22672,65269.24
2845,22680,65292.19
2846,22688,65315.14
2847,22672,65338.09
2848,22652,65361.04
2849,22608,65383.99
2850,22568,65406.94
2851,22524,65429.89
2852,22492,65452.84
2853,22472,65475.79
2854,22460,65498.74
2855,22456,65521.69
2856,22460,65544.64
2857,22468,65567.59
2858,22476,65590.54
2859,22492,65613.49
2860,22500,65636.44
2861,22508,65659.39
2862,22508,65682.34
2863,22508,65705.29
2864,22508,65728.24
2865,22500,65751.19
2866,22504,65774.14
2867,22504,65797.09
2868,22512,65820.04
2869,22520,65842.99
2870,22528,65865.94
2871,22540,65888.89
2872,22556,65911.84
2873,22572,65934.79
2874,22584,65957.74
2875,22596,65980.69
2876,22612,66003.64
2877,22624,66026.59
2878,22636,66049.53
2879,22648,66072.48
2880,22648,66095.43
2881,22628,66118.38
2882,22588,66141.33
2883,22532,66164.28
2884,22480,66187.23
2885,22436,66210.18
2886,22408,66233.13
2887,22388,66256.08
2888,22388,66279.03
2889,22384,66301.98
2890,22380,66324.93
2891,22384,66347.88
2892,22392,66370.83
2893,22400,66393.78
2894,22400,66416.73
2895,22408,66439.68
2896,22412,66462.63
2897,22412,66485.58
2898,22412,66508.53
2899,22408,66531.48
2900,22408,66554.43
2901,22416,66577.38
2902,22420,66600.33
2903,22424,66623.28
2904,22436,66646.23
2905,22452,66669.18
2906,22460,66692.13
2907,22472,66715.08
2908,22488,66738.03
2909,22504,66760.98
2910,22516,66783.93
2911,22532,66806.88
2912,22548,66829.83
2913,22556,66852.78
2914,22564,66875.73
2915,22548,66898.68
2916,22508,66921.63
2917,22460,66944.58
2918,22412,66967.53
2919,22368,66990.48
2920,22344,67013.43
2921,22324,67036.38
2922,22320,67059.33
2923,22312,67082.28
2924,22320,67105.23
2925,22324,67128.18
2926,22336,67151.13
2927,22348,67174.08
2928,22360,67197.03
2929,22372,67219.97
2930,22376,67242.92
2931,22384,67265.87
2932,22380,67288.82
2933,22384,67311.77
2934,22384,67334.72
2935,22392,67357.67
2936,22392,67380.62
2937,22404,67403.57
2938,22412,67426.52
2939,22424,67449.47
2940,22444,67472.42
2941,22456,67495.37
2942,22468,67518.32
2943,22484,67541.27
2944,22500,67564.22
2945,22512,67587.17
2946,22528,67610.12
2947,22544,67633.07
2948,22560,67656.02
2949,22572,67678.97
2950,22572,67701.92
2951,22556,67724.87
2952,22520,67747.82
2953,22480,67770.77
2954,22440,67793.72
2955,22412,67816.67
2956,22392,67839.62
2957,22388,67862.57
2958,22384,67885.52
2959,22388,67908.47
2960,22396,67931.42
2961,22404,67954.37
2962,22420,67977.32
2963,22432,68000.27
2964,22440,68023.22
2965,22448,68046.17
2966,22456,68069.12
2967,22456,68092.07
2968,22460,68115.02
2969,22456,68137.97
2970,22460,68160.92
2971,22468,68183.87
2972,22480,68206.82
2973,22488,68229.77
2974,22500,68252.72
2975,22512,68275.67
2976,22528,68298.62
2977,22544,68321.57
2978,22564,68344.52
2979,22580,68367.47
2980,22596,68390.41
2981,22608,68413.36
2982,22624,68436.31
2983,22640,68459.26
2984,22652,68482.21
2985,22668,68505.16
2986,22668,68528.11
2987,22656,68551.06
2988,22628,68574.01
2989,22596,68596.96
2990,22568,68619.91
2991,22548,68642.86
2992,22540,68665.81
2993,22540,68688.76
2994,22540,68711.71
2995,22548,68734.66
2996,22556,68757.61
2997,22572,68780.56
2998,22576,68803.51
2999,22592,68826.46
