Sample_Index,IR_Value,Timestamp_ms
0,24744,0.00
1,24756,20.05
2,24772,40.11
3,24784,60.16
4,24796,80.22
5,24792,100.27
6,24776,120.33
7,24752,140.38
8,24728,160.44
9,24704,180.49
10,24688,200.55
11,24684,220.60
12,24680,240.65
13,24680,260.71
14,24684,280.76
15,24684,300.82
16,24688,320.87
17,24692,340.93
18,24696,360.98
19,24700,381.04
20,24700,401.09
21,24700,421.15
22,24704,441.20
23,24704,461.25
24,24708,481.31
25,24708,501.36
26,24716,521.42
27,24724,541.47
28,24732,561.53
29,24740,581.58
30,24748,601.64
31,24760,621.69
32,24768,641.75
33,24780,661.80
34,24788,681.85
35,24796,701.91
36,24808,721.96
37,24816,742.02
38,24828,762.07
39,24836,782.13
40,24844,802.18
41,24856,822.24
42,24872,842.29
43,24884,862.34
44,24896,882.40
45,24908,902.45
46,24916,922.51
47,24928,942.56
48,24936,962.62
49,24940,982.67
50,24936,1002.73
51,24924,1022.78
52,24896,1042.84
53,24876,1062.89
54,24860,1082.94
55,24848,1103.00
56,24840,1123.05
57,24844,1143.11
58,24840,1163.16
59,24840,1183.22
60,24840,1203.27
61,24844,1223.33
62,24848,1243.38
63,24852,1263.44
64,24856,1283.49
65,24856,1303.54
66,24856,1323.60
67,24852,1343.65
68,24852,1363.71
69,24856,1383.76
70,24856,1403.82
71,24860,1423.87
72,24864,1443.93
73,24868,1463.98
74,24876,1484.04
75,24884,1504.09
76,24892,1524.14
77,24900,1544.20
78,24908,1564.25
79,24916,1584.31
80,24924,1604.36
81,24928,1624.42
82,24936,1644.47
83,24944,1664.53
84,24952,1684.58
85,24964,1704.64
86,24972,1724.69
87,24980,1744.74
88,24988,1764.80
89,24992,1784.85
90,24984,1804.91
91,24964,1824.96
92,24944,1845.02
93,24924,1865.07
94,24904,1885.13
95,24892,1905.18
96,24884,1925.24
97,24880,1945.29
98,24880,1965.34
99,24876,1985.40
100,24876,2005.45
101,24876,2025.51
102,24876,2045.56
103,24876,2065.62
104,24876,2085.67
105,24876,2105.73
106,24872,2125.78
107,24868,2145.83
108,24864,2165.89
109,24868,2185.94
110,24872,2206.00
111,24872,2226.05
112,24872,2246.11
113,24876,2266.16
114,24880,2286.22
115,24888,2306.27
116,24892,2326.33
117,24900,2346.38
118,24912,2366.43
119,24916,2386.49
120,24920,2406.54
121,24928,2426.60
122,24932,2446.65
123,24940,2466.71
124,24944,2486.76
125,24948,2506.82
126,24940,2526.87
127,24924,2546.93
128,24900,2566.98
129,24872,2587.03
130,24848,2607.09
131,24828,2627.14
132,24816,2647.20
133,24816,2667.25
134,24812,2687.31
135,24808,2707.36
136,24808,2727.42
137,24808,2747.47
138,24808,2767.53
139,24812,2787.58
140,24816,2807.63
141,24812,2827.69
142,24808,2847.74
143,24808,2867.80
144,24808,2887.85
145,24808,2907.91
146,24812,2927.96
147,24812,2948.02
148,24816,2968.07
149,24824,2988.13
150,24828,3008.18
151,24836,3028.23
152,24844,3048.29
153,24852,3068.34
154,24860,3088.40
155,24864,3108.45
156,24876,3128.51
157,24884,3148.56
158,24896,3168.62
159,24904,3188.67
160,24908,3208.73
161,24916,3228.78
162,24928,3248.83
163,24936,3268.89
164,24928,3288.94
165,24916,3309.00
166,24900,3329.05
167,24880,3349.11
168,24864,3369.16
169,24852,3389.22
170,24848,3409.27
171,24848,3429.33
172,24848,3449.38
173,24848,3469.43
174,24848,3489.49
175,24844,3509.54
176,24844,3529.60
177,24852,3549.65
178,24852,3569.71
179,24852,3589.76
180,24856,3609.82
181,24856,3629.87
182,24856,3649.92
183,24860,3669.98
184,24860,3690.03
185,24860,3710.09
186,24868,3730.14
187,24876,3750.20
188,24884,3770.25
189,24892,3790.31
190,24896,3810.36
191,24904,3830.42
192,24912,3850.47
193,24924,3870.52
194,24928,3890.58
195,24936,3910.63
196,24944,3930.69
197,24956,3950.74
198,24964,3970.80
199,24972,3990.85
200,24984,4010.91
201,24996,4030.96
202,25012,4051.02
203,25024,4071.07
204,25028,4091.12
205,25024,4111.18
206,25016,4131.23
207,25008,4151.29
208,24996,4171.34
209,24992,4191.40
210,24996,4211.45
211,25000,4231.51
212,25004,4251.56
213,25008,4271.62
214,25016,4291.67
215,25016,4311.72
216,25020,4331.78
217,25024,4351.83
218,25028,4371.89
219,25036,4391.94
220,25040,4412.00
221,25044,4432.05
222,25052,4452.11
223,25052,4472.16
224,25056,4492.22
225,25064,4512.27
226,25068,4532.32
227,25076,4552.38
228,25084,4572.43
229,25092,4592.49
230,25104,4612.54
231,25112,4632.60
232,25120,4652.65
233,25128,4672.71
234,25136,4692.76
235,25144,4712.82
236,25152,4732.87
237,25156,4752.92
238,25160,4772.98
239,25172,4793.03
240,25176,4813.09
241,25184,4833.14
242,25176,4853.20
243,25168,4873.25
244,25156,4893.31
245,25144,4913.36
246,25136,4933.41
247,25128,4953.47
248,25128,4973.52
249,25132,4993.58
250,25136,5013.63
251,25140,5033.69
252,25144,5053.74
253,25148,5073.80
254,25148,5093.85
255,25152,5113.91
256,25156,5133.96
257,25160,5154.01
258,25156,5174.07
259,25160,5194.12
260,25160,5214.18
261,25160,5234.23
262,25164,5254.29
263,25168,5274.34
264,25172,5294.40
265,25172,5314.45
266,25176,5334.51
267,25184,5354.56
268,25188,5374.61
269,25192,5394.67
270,25200,5414.72
271,25204,5434.78
272,25212,5454.83
273,25216,5474.89
274,25220,5494.94
275,25212,5515.00
276,25204,5535.05
277,25188,5555.11
278,25172,5575.16
279,25164,5595.21
280,25160,5615.27
281,25156,5635.32
282,25160,5655.38
283,25164,5675.43
284,25164,5695.49
285,25164,5715.54
286,25168,5735.60
287,25168,5755.65
288,25172,5775.71
289,25176,5795.76
290,25172,5815.81
291,25172,5835.87
292,25168,5855.92
293,25160,5875.98
294,25160,5896.03
295,25160,5916.09
296,25160,5936.14
297,25160,5956.20
298,25160,5976.25
299,25160,5996.31
300,25160,6016.36
301,25164,6036.41
302,25168,6056.47
303,25172,6076.52
304,25172,6096.58
305,25180,6116.63
306,25176,6136.69
307,25172,6156.74
308,25156,6176.80
309,25136,6196.85
310,25124,6216.91
311,25112,6236.96
312,25104,6257.01
313,25104,6277.07
314,25104,6297.12
315,25104,6317.18
316,25108,6337.23
317,25108,6357.29
318,25108,6377.34
319,25116,6397.40
320,25116,6417.45
321,25116,6437.50
322,25112,6457.56
323,25108,6477.61
324,25100,6497.67
325,25096,6517.72
326,25088,6537.78
327,25084,6557.83
328,25080,6577.89
329,25076,6597.94
330,25076,6618.00
331,25076,6638.05
332,25080,6658.10
333,25084,6678.16
334,25088,6698.21
335,25088,6718.27
336,25092,6738.32
337,25096,6758.38
338,25088,6778.43
339,25072,6798.49
340,25056,6818.54
341,25036,6838.60
342,25020,6858.65
343,25004,6878.70
344,24992,6898.76
345,24988,6918.81
346,24980,6938.87
347,24976,6958.92
348,24968,6978.98
349,24960,6999.03
350,24952,7019.09
351,24948,7039.14
352,24948,7059.20
353,24944,7079.25
354,24940,7099.30
355,24936,7119.36
356,24936,7139.41
357,24936,7159.47
358,24936,7179.52
359,24936,7199.58
360,24944,7219.63
361,24944,7239.69
362,24952,7259.74
363,24956,7279.80
364,24960,7299.85
365,24968,7319.90
366,24976,7339.96
367,24980,7360.01
368,24992,7380.07
369,24996,7400.12
370,25000,7420.18
371,25008,7440.23
372,25020,7460.29
373,25028,7480.34
374,25036,7500.40
375,25044,7520.45
376,25052,7540.50
377,25060,7560.56
378,25060,7580.61
379,25068,7600.67
380,25072,7620.72
381,25076,7640.78
382,25080,7660.83
383,25080,7680.89
384,25068,7700.94
385,25060,7720.99
386,25044,7741.05
387,25032,7761.10
388,25024,7781.16
389,25020,7801.21
390,25020,7821.27
391,25024,7841.32
392,25028,7861.38
393,25032,7881.43
394,25032,7901.49
395,25036,7921.54
396,25040,7941.59
397,25040,7961.65
398,25044,7981.70
399,25048,8001.76
400,25052,8021.81
401,25048,8041.87
402,25052,8061.92
403,25056,8081.98
404,25064,8102.03
405,25068,8122.09
406,25072,8142.14
407,25080,8162.19
408,25084,8182.25
409,25092,8202.30
410,25096,8222.36
411,25100,8242.41
412,25104,8262.47
413,25108,8282.52
414,25112,8302.58
415,25112,8322.63
416,25120,8342.69
417,25120,8362.74
418,25128,8382.79
419,25132,8402.85
420,25136,8422.90
421,25144,8442.96
422,25148,8463.01
423,25152,8483.07
424,25156,8503.12
425,25148,8523.18
426,25140,8543.23
427,25132,8563.29
428,25120,8583.34
429,25116,8603.39
430,25120,8623.45
431,25120,8643.50
432,25128,8663.56
433,25132,8683.61
434,25140,8703.67
435,25144,8723.72
436,25156,8743.78
437,25164,8763.83
438,25176,8783.89
439,25180,8803.94
440,25188,8823.99
441,25192,8844.05
442,25196,8864.10
443,25208,8884.16
444,25212,8904.21
445,25220,8924.27
446,25228,8944.32
447,25232,8964.38
448,25236,8984.43
449,25248,9004.48
450,25256,9024.54
451,25260,9044.59
452,25272,9064.65
453,25276,9084.70
454,25284,9104.76
455,25284,9124.81
456,25288,9144.87
457,25296,9164.92
458,25296,9184.98
459,25300,9205.03
460,25300,9225.08
461,25308,9245.14
462,25316,9265.19
463,25320,9285.25
464,25316,9305.30
465,25308,9325.36
466,25308,9345.41
467,25312,9365.47
468,25312,9385.52
469,25324,9405.58
470,25332,9425.63
471,25344,9445.68
472,25356,9465.74
473,25368,9485.79
474,25372,9505.85
475,25376,9525.90
476,25380,9545.96
477,25384,9566.01
478,25388,9586.07
479,25396,9606.12
480,25392,9626.18
481,25392,9646.23
482,25396,9666.28
483,25400,9686.34
484,25408,9706.39
485,25416,9726.45
486,25420,9746.50
487,25428,9766.56
488,25428,9786.61
489,25432,9806.67
490,25440,9826.72
491,25436,9846.78
492,25436,9866.83
493,25436,9886.88
494,25440,9906.94
495,25440,9926.99
496,25444,9947.05
497,25440,9967.10
498,25436,9987.16
499,25428,10007.21
500,25428,10027.27
501,25432,10047.32
502,25440,10067.38
503,25448,10087.43
504,25456,10107.48
505,25464,10127.54
506,25472,10147.59
507,25480,10167.65
508,25484,10187.70
509,25488,10207.76
510,25492,10227.81
511,25492,10247.87
512,25492,10267.92
513,25492,10287.98
514,25492,10308.03
515,25496,10328.08
516,25496,10348.14
517,25500,10368.19
518,25504,10388.25
519,25504,10408.30
520,25508,10428.36
521,25508,10448.41
522,25508,10468.47
523,25508,10488.52
524,25512,10508.57
525,25512,10528.63
526,25520,10548.68
527,25524,10568.74
528,25524,10588.79
529,25516,10608.85
530,25512,10628.90
531,25512,10648.96
532,25508,10669.01
533,25512,10689.07
534,25516,10709.12
535,25524,10729.17
536,25532,10749.23
537,25540,10769.28
538,25540,10789.34
539,25544,10809.39
540,25548,10829.45
541,25548,10849.50
542,25552,10869.56
543,25556,10889.61
544,25552,10909.67
545,25556,10929.72
546,25552,10949.77
547,25552,10969.83
548,25552,10989.88
549,25552,11009.94
550,25548,11029.99
551,25548,11050.05
552,25552,11070.10
553,25552,11090.16
554,25552,11110.21
555,25552,11130.27
556,25548,11150.32
557,25544,11170.37
558,25544,11190.43
559,25536,11210.48
560,25528,11230.54
561,25520,11250.59
562,25512,11270.65
563,25512,11290.70
564,25512,11310.76
565,25516,11330.81
566,25516,11350.87
567,25516,11370.92
568,25524,11390.97
569,25524,11411.03
570,25528,11431.08
571,25528,11451.14
572,25528,11471.19
573,25528,11491.25
574,25524,11511.30
575,25520,11531.36
576,25512,11551.41
577,25512,11571.47
578,25508,11591.52
579,25504,11611.57
580,25504,11631.63
581,25508,11651.68
582,25508,11671.74
583,25512,11691.79
584,25512,11711.85
585,25512,11731.90
586,25504,11751.96
587,25504,11772.01
588,25500,11792.06
589,25496,11812.12
590,25492,11832.17
591,25484,11852.23
592,25476,11872.28
593,25468,11892.34
594,25460,11912.39
595,25464,11932.45
596,25464,11952.50
597,25468,11972.56
598,25472,11992.61
599,25480,12012.66
600,25484,12032.72
601,25480,12052.77
602,25480,12072.83
603,25480,12092.88
604,25476,12112.94
605,25476,12132.99
606,25476,12153.05
607,25472,12173.10
608,25472,12193.16
609,25468,12213.21
610,25468,12233.26
611,25468,12253.32
612,25468,12273.37
613,25464,12293.43
614,25468,12313.48
615,25472,12333.54
616,25476,12353.59
617,25480,12373.65
618,25484,12393.70
619,25492,12413.76
620,25496,12433.81
621,25500,12453.86
622,25504,12473.92
623,25504,12493.97
624,25504,12514.03
625,25504,12534.08
626,25504,12554.14
627,25504,12574.19
628,25504,12594.25
629,25504,12614.30
630,25504,12634.36
631,25500,12654.41
632,25496,12674.46
633,25492,12694.52
634,25484,12714.57
635,25476,12734.63
636,25468,12754.68
637,25468,12774.74
638,25472,12794.79
639,25472,12814.85
640,25476,12834.90
641,25480,12854.96
642,25484,12875.01
643,25488,12895.06
644,25492,12915.12
645,25496,12935.17
646,25504,12955.23
647,25504,12975.28
648,25508,12995.34
649,25512,13015.39
650,25516,13035.45
651,25516,13055.50
652,25520,13075.56
653,25520,13095.61
654,25524,13115.66
655,25528,13135.72
656,25532,13155.77
657,25532,13175.83
658,25536,13195.88
659,25536,13215.94
660,25536,13235.99
661,25540,13256.05
662,25540,13276.10
663,25540,13296.15
664,25536,13316.21
665,25536,13336.26
666,25532,13356.32
667,25532,13376.37
668,25532,13396.43
669,25528,13416.48
670,25524,13436.54
671,25520,13456.59
672,25516,13476.65
673,25504,13496.70
674,25496,13516.75
675,25484,13536.81
676,25476,13556.86
677,25468,13576.92
678,25468,13596.97
679,25472,13617.03
680,25472,13637.08
681,25468,13657.14
682,25468,13677.19
683,25468,13697.25
684,25464,13717.30
685,25456,13737.35
686,25448,13757.41
687,25444,13777.46
688,25440,13797.52
689,25436,13817.57
690,25428,13837.63
691,25424,13857.68
692,25420,13877.74
693,25416,13897.79
694,25416,13917.85
695,25416,13937.90
696,25424,13957.95
697,25428,13978.01
698,25428,13998.06
699,25436,14018.12
700,25436,14038.17
701,25440,14058.23
702,25436,14078.28
703,25436,14098.34
704,25436,14118.39
705,25432,14138.45
706,25436,14158.50
707,25440,14178.55
708,25444,14198.61
709,25440,14218.66
710,25432,14238.72
711,25420,14258.77
712,25404,14278.83
713,25396,14298.88
714,25384,14318.94
715,25380,14338.99
716,25376,14359.05
717,25380,14379.10
718,25380,14399.15
719,25376,14419.21
720,25376,14439.26
721,25376,14459.32
722,25372,14479.37
723,25372,14499.43
724,25372,14519.48
725,25372,14539.54
726,25372,14559.59
727,25372,14579.64
728,25368,14599.70
729,25368,14619.75
730,25364,14639.81
731,25364,14659.86
732,25360,14679.92
733,25360,14699.97
734,25360,14720.03
735,25360,14740.08
736,25364,14760.14
737,25360,14780.19
738,25368,14800.24
739,25372,14820.30
740,25376,14840.35
741,25372,14860.41
742,25372,14880.46
743,25360,14900.52
744,25352,14920.57
745,25336,14940.63
746,25328,14960.68
747,25320,14980.74
748,25320,15000.79
749,25316,15020.84
750,25312,15040.90
751,25312,15060.95
752,25312,15081.01
753,25312,15101.06
754,25308,15121.12
755,25308,15141.17
756,25300,15161.23
757,25296,15181.28
758,25292,15201.34
759,25284,15221.39
760,25280,15241.44
761,25272,15261.50
762,25268,15281.55
763,25260,15301.61
764,25252,15321.66
765,25248,15341.72
766,25244,15361.77
767,25240,15381.83
768,25232,15401.88
769,25232,15421.94
770,25228,15441.99
771,25228,15462.04
772,25228,15482.10
773,25224,15502.15
774,25220,15522.21
775,25208,15542.26
776,25192,15562.32
777,25180,15582.37
778,25176,15602.43
779,25168,15622.48
780,25168,15642.54
781,25164,15662.59
782,25164,15682.64
783,25164,15702.70
784,25168,15722.75
785,25164,15742.81
786,25164,15762.86
787,25164,15782.92
788,25168,15802.97
789,25168,15823.03
790,25172,15843.08
791,25172,15863.14
792,25172,15883.19
793,25176,15903.24
794,25184,15923.30
795,25184,15943.35
796,25184,15963.41
797,25184,15983.46
798,25188,16003.52
799,25180,16023.57
800,25176,16043.63
801,25168,16063.68
802,25168,16083.73
803,25164,16103.79
804,25156,16123.84
805,25140,16143.90
806,25124,16163.95
807,25108,16184.01
808,25092,16204.06
809,25076,16224.12
810,25060,16244.17
811,25056,16264.23
812,25056,16284.28
813,25052,16304.33
814,25052,16324.39
815,25052,16344.44
816,25052,16364.50
817,25060,16384.55
818,25080,16404.61
819,25104,16424.66
820,25116,16444.72
821,25128,16464.77
822,25140,16484.83
823,25148,16504.88
824,25160,16524.93
825,25176,16544.99
826,25192,16565.04
827,25212,16585.10
828,25236,16605.15
829,25252,16625.21
830,25272,16645.26
831,25292,16665.32
832,25316,16685.37
833,25332,16705.43
834,25336,16725.48
835,25332,16745.53
836,25332,16765.59
837,25340,16785.64
838,25352,16805.70
839,25368,16825.75
840,25384,16845.81
841,25396,16865.86
842,25404,16885.92
843,25416,16905.97
844,25424,16926.03
845,25432,16946.08
846,25440,16966.13
847,25444,16986.19
848,25456,17006.24
849,25460,17026.30
850,25468,17046.35
851,25472,17066.41
852,25472,17086.46
853,25476,17106.52
854,25472,17126.57
855,25476,17146.63
856,25484,17166.68
857,25492,17186.73
858,25500,17206.79
859,25512,17226.84
860,25512,17246.90
861,25508,17266.95
862,25492,17287.01
863,25476,17307.06
864,25464,17327.12
865,25452,17347.17
866,25448,17367.22
867,25448,17387.28
868,25444,17407.33
869,25444,17427.39
870,25448,17447.44
871,25452,17467.50
872,25452,17487.55
873,25452,17507.61
874,25452,17527.66
875,25448,17547.72
876,25452,17567.77
877,25444,17587.82
878,25448,17607.88
879,25444,17627.93
880,25444,17647.99
881,25440,17668.04
882,25440,17688.10
883,25440,17708.15
884,25440,17728.21
885,25440,17748.26
886,25444,17768.32
887,25452,17788.37
888,25448,17808.42
889,25440,17828.48
890,25432,17848.53
891,25424,17868.59
892,25416,17888.64
893,25408,17908.70
894,25412,17928.75
895,25412,17948.81
896,25420,17968.86
897,25420,17988.92
898,25428,18008.97
899,25428,18029.02
900,25436,18049.08
901,25436,18069.13
902,25436,18089.19
903,25440,18109.24
904,25444,18129.30
905,25444,18149.35
906,25444,18169.41
907,25444,18189.46
908,25448,18209.52
909,25448,18229.57
910,25452,18249.62
911,25456,18269.68
912,25456,18289.73
913,25460,18309.79
914,25456,18329.84
915,25448,18349.90
916,25436,18369.95
917,25420,18390.01
918,25412,18410.06
919,25404,18430.12
920,25404,18450.17
921,25404,18470.22
922,25404,18490.28
923,25408,18510.33
924,25408,18530.39
925,25416,18550.44
926,25424,18570.50
927,25428,18590.55
928,25436,18610.61
929,25440,18630.66
930,25444,18650.72
931,25444,18670.77
932,25448,18690.82
933,25452,18710.88
934,25456,18730.93
935,25460,18750.99
936,25464,18771.04
937,25468,18791.10
938,25480,18811.15
939,25484,18831.21
940,25488,18851.26
941,25488,18871.31
942,25484,18891.37
943,25480,18911.42
944,25476,18931.48
945,25476,18951.53
946,25480,18971.59
947,25492,18991.64
948,25504,19011.70
949,25512,19031.75
950,25524,19051.81
951,25532,19071.86
952,25544,19091.91
953,25552,19111.97
954,25552,19132.02
955,25560,19152.08
956,25560,19172.13
957,25564,19192.19
958,25568,19212.24
959,25568,19232.30
960,25576,19252.35
961,25584,19272.41
962,25588,19292.46
963,25588,19312.51
964,25592,19332.57
965,25592,19352.62
966,25592,19372.68
967,25588,19392.73
968,25576,19412.79
969,25572,19432.84
970,25568,19452.90
971,25564,19472.95
972,25564,19493.01
973,25572,19513.06
974,25576,19533.11
975,25580,19553.17
976,25588,19573.22
977,25588,19593.28
978,25596,19613.33
979,25600,19633.39
980,25608,19653.44
981,25612,19673.50
982,25620,19693.55
983,25624,19713.61
984,25624,19733.66
985,25628,19753.71
986,25628,19773.77
987,25632,19793.82
988,25640,19813.88
989,25648,19833.93
990,25648,19853.99
991,25648,19874.04
992,25640,19894.10
993,25632,19914.15
994,25624,19934.21
995,25620,19954.26
996,25612,19974.31
997,25612,19994.37
998,25612,20014.42
999,25612,20034.48
1000,25620,20054.53
1001,25624,20074.59
1002,25628,20094.64
1003,25632,20114.70
1004,25636,20134.75
1005,25636,20154.80
1006,25636,20174.86
1007,25636,20194.91
1008,25632,20214.97
1009,25640,20235.02
1010,25636,20255.08
1011,25640,20275.13
1012,25644,20295.19
1013,25648,20315.24
1014,25648,20335.30
1015,25644,20355.35
1016,25636,20375.40
1017,25624,20395.46
1018,25608,20415.51
1019,25596,20435.57
1020,25588,20455.62
1021,25588,20475.68
1022,25588,20495.73
1023,25592,20515.79
1024,25592,20535.84
1025,25592,20555.90
1026,25592,20575.95
1027,25596,20596.00
1028,25596,20616.06
1029,25600,20636.11
1030,25600,20656.17
1031,25604,20676.22
1032,25604,20696.28
1033,25608,20716.33
1034,25608,20736.39
1035,25604,20756.44
1036,25604,20776.50
1037,25604,20796.55
1038,25600,20816.60
1039,25592,20836.66
1040,25584,20856.71
1041,25572,20876.77
1042,25552,20896.82
1043,25528,20916.88
1044,25512,20936.93
1045,25496,20956.99
1046,25484,20977.04
1047,25476,20997.10
1048,25472,21017.15
1049,25468,21037.20
1050,25468,21057.26
1051,25468,21077.31
1052,25472,21097.37
1053,25476,21117.42
1054,25480,21137.48
1055,25484,21157.53
1056,25488,21177.59
1057,25492,21197.64
1058,25500,21217.70
1059,25508,21237.75
1060,25516,21257.80
1061,25524,21277.86
1062,25540,21297.91
1063,25552,21317.97
1064,25552,21338.02
1065,25548,21358.08
1066,25540,21378.13
1067,25532,21398.19
1068,25516,21418.24
1069,25512,21438.30
1070,25508,21458.35
1071,25504,21478.40
1072,25500,21498.46
1073,25500,21518.51
1074,25496,21538.57
1075,25496,21558.62
1076,25504,21578.68
1077,25508,21598.73
1078,25512,21618.79
1079,25512,21638.84
1080,25512,21658.89
1081,25516,21678.95
1082,25516,21699.00
1083,25520,21719.06
1084,25524,21739.11
1085,25524,21759.17
1086,25528,21779.22
1087,25528,21799.28
1088,25528,21819.33
1089,25516,21839.39
1090,25500,21859.44
1091,25480,21879.49
1092,25460,21899.55
1093,25440,21919.60
1094,25428,21939.66
1095,25416,21959.71
1096,25408,21979.77
1097,25400,21999.82
1098,25400,22019.88
1099,25404,22039.93
1100,25404,22059.99
1101,25408,22080.04
1102,25408,22100.09
1103,25416,22120.15
1104,25420,22140.20
1105,25424,22160.26
1106,25424,22180.31
1107,25420,22200.37
1108,25424,22220.42
1109,25424,22240.48
1110,25428,22260.53
1111,25436,22280.59
1112,25440,22300.64
1113,25440,22320.69
1114,25432,22340.75
1115,25416,22360.80
1116,25404,22380.86
1117,25392,22400.91
1118,25384,22420.97
1119,25380,22441.02
1120,25376,22461.08
1121,25376,22481.13
1122,25376,22501.19
1123,25376,22521.24
1124,25380,22541.29
1125,25384,22561.35
1126,25388,22581.40
1127,25392,22601.46
1128,25392,22621.51
1129,25388,22641.57
1130,25388,22661.62
1131,25388,22681.68
1132,25392,22701.73
1133,25396,22721.79
1134,25396,22741.84
1135,25396,22761.89
1136,25400,22781.95
1137,25396,22802.00
1138,25400,22822.06
1139,25392,22842.11
1140,25380,22862.17
1141,25356,22882.22
1142,25332,22902.28
1143,25312,22922.33
1144,25292,22942.38
1145,25280,22962.44
1146,25276,22982.49
1147,25268,23002.55
1148,25264,23022.60
1149,25264,23042.66
1150,25260,23062.71
1151,25264,23082.77
1152,25268,23102.82
1153,25272,23122.88
1154,25280,23142.93
1155,25280,23162.98
1156,25280,23183.04
1157,25280,23203.09
1158,25284,23223.15
1159,25284,23243.20
1160,25292,23263.26
1161,25296,23283.31
1162,25300,23303.37
1163,25312,23323.42
1164,25320,23343.48
1165,25336,23363.53
1166,25344,23383.58
1167,25352,23403.64
1168,25356,23423.69
1169,25352,23443.75
1170,25340,23463.80
1171,25324,23483.86
1172,25304,23503.91
1173,25288,23523.97
1174,25280,23544.02
1175,25276,23564.08
1176,25276,23584.13
1177,25276,23604.18
1178,25280,23624.24
1179,25280,23644.29
1180,25288,23664.35
1181,25288,23684.40
1182,25296,23704.46
1183,25300,23724.51
1184,25304,23744.57
1185,25304,23764.62
1186,25308,23784.68
1187,25312,23804.73
1188,25316,23824.78
1189,25316,23844.84
1190,25320,23864.89
1191,25324,23884.95
1192,25336,23905.00
1193,25344,23925.06
1194,25348,23945.11
1195,25360,23965.17
1196,25368,23985.22
1197,25380,24005.28
1198,25380,24025.33
1199,25368,24045.38
1200,25356,24065.44
1201,25340,24085.49
1202,25324,24105.55
1203,25316,24125.60
1204,25312,24145.66
1205,25316,24165.71
1206,25316,24185.77
1207,25316,24205.82
1208,25320,24225.87
1209,25320,24245.93
1210,25324,24265.98
1211,25324,24286.04
1212,25324,24306.09
1213,25328,24326.15
1214,25328,24346.20
1215,25332,24366.26
1216,25336,24386.31
1217,25340,24406.37
1218,25340,24426.42
1219,25344,24446.47
1220,25348,24466.53
1221,25352,24486.58
1222,25352,24506.64
1223,25360,24526.69
1224,25364,24546.75
1225,25368,24566.80
1226,25372,24586.86
1227,25364,24606.91
1228,25348,24626.97
1229,25332,24647.02
1230,25312,24667.07
1231,25296,24687.13
1232,25284,24707.18
1233,25276,24727.24
1234,25276,24747.29
1235,25280,24767.35
1236,25284,24787.40
1237,25284,24807.46
1238,25284,24827.51
1239,25292,24847.57
1240,25296,24867.62
1241,25308,24887.67
1242,25312,24907.73
1243,25320,24927.78
1244,25332,24947.84
1245,25340,24967.89
1246,25356,24987.95
1247,25368,25008.00
1248,25380,25028.06
1249,25388,25048.11
1250,25404,25068.17
1251,25416,25088.22
1252,25424,25108.27
1253,25432,25128.33
1254,25440,25148.38
1255,25436,25168.44
1256,25428,25188.49
1257,25420,25208.55
1258,25408,25228.60
1259,25396,25248.66
1260,25396,25268.71
1261,25396,25288.77
1262,25400,25308.82
1263,25404,25328.87
1264,25408,25348.93
1265,25412,25368.98
1266,25420,25389.04
1267,25424,25409.09
1268,25432,25429.15
1269,25440,25449.20
1270,25444,25469.26
1271,25448,25489.31
1272,25448,25509.37
1273,25448,25529.42
1274,25436,25549.47
1275,25428,25569.53
1276,25424,25589.58
1277,25424,25609.64
1278,25424,25629.69
1279,25424,25649.75
1280,25428,25669.80
1281,25428,25689.86
1282,25412,25709.91
1283,25396,25729.96
1284,25376,25750.02
1285,25352,25770.07
1286,25332,25790.13
1287,25316,25810.18
1288,25308,25830.24
1289,25300,25850.29
1290,25296,25870.35
1291,25296,25890.40
1292,25288,25910.46
1293,25280,25930.51
1294,25272,25950.56
1295,25264,25970.62
1296,25248,25990.67
1297,25240,26010.73
1298,25236,26030.78
1299,25232,26050.84
1300,25228,26070.89
1301,25224,26090.95
1302,25220,26111.00
1303,25212,26131.06
1304,25208,26151.11
1305,25208,26171.16
1306,25204,26191.22
1307,25200,26211.27
1308,25184,26231.33
1309,25164,26251.38
1310,25140,26271.44
1311,25116,26291.49
1312,25092,26311.55
1313,25076,26331.60
1314,25060,26351.66
1315,25052,26371.71
1316,25044,26391.76
1317,25040,26411.82
1318,25036,26431.87
1319,25036,26451.93
1320,25036,26471.98
1321,25036,26492.04
1322,25036,26512.09
1323,25028,26532.15
1324,25028,26552.20
1325,25024,26572.26
1326,25024,26592.31
1327,25020,26612.36
1328,25020,26632.42
1329,25024,26652.47
1330,25028,26672.53
1331,25032,26692.58
1332,25036,26712.64
1333,25036,26732.69
1334,25028,26752.75
1335,25012,26772.80
1336,24984,26792.86
1337,24964,26812.91
1338,24940,26832.96
1339,24924,26853.02
1340,24908,26873.07
1341,24896,26893.13
1342,24884,26913.18
1343,24880,26933.24
1344,24876,26953.29
1345,24872,26973.35
1346,24868,26993.40
1347,24868,27013.45
1348,24864,27033.51
1349,24864,27053.56
1350,24864,27073.62
1351,24860,27093.67
1352,24860,27113.73
1353,24860,27133.78
1354,24860,27153.84
1355,24860,27173.89
1356,24860,27193.95
1357,24864,27214.00
1358,24868,27234.05
1359,24872,27254.11
1360,24864,27274.16
1361,24848,27294.22
1362,24824,27314.27
1363,24796,27334.33
1364,24764,27354.38
1365,24740,27374.44
1366,24724,27394.49
1367,24712,27414.55
1368,24704,27434.60
1369,24700,27454.65
1370,24696,27474.71
1371,24696,27494.76
1372,24696,27514.82
1373,24692,27534.87
1374,24688,27554.93
1375,24676,27574.98
1376,24676,27595.04
1377,24668,27615.09
1378,24668,27635.15
1379,24668,27655.20
1380,24668,27675.25
1381,24672,27695.31
1382,24680,27715.36
1383,24684,27735.42
1384,24696,27755.47
1385,24704,27775.53
1386,24708,27795.58
1387,24708,27815.64
1388,24692,27835.69
1389,24664,27855.75
1390,24636,27875.80
1391,24612,27895.85
1392,24588,27915.91
1393,24580,27935.96
1394,24572,27956.02
1395,24568,27976.07
1396,24564,27996.13
1397,24560,28016.18
1398,24560,28036.24
1399,24572,28056.29
1400,24580,28076.35
1401,24592,28096.40
1402,24600,28116.45
1403,24608,28136.51
1404,24612,28156.56
1405,24624,28176.62
1406,24632,28196.67
1407,24644,28216.73
1408,24656,28236.78
1409,24664,28256.84
1410,24676,28276.89
1411,24688,28296.95
1412,24700,28317.00
1413,24712,28337.05
1414,24728,28357.11
1415,24736,28377.16
1416,24732,28397.22
1417,24712,28417.27
1418,24688,28437.33
1419,24664,28457.38
1420,24648,28477.44
1421,24636,28497.49
1422,24640,28517.54
1423,24644,28537.60
1424,24656,28557.65
1425,24672,28577.71
1426,24688,28597.76
1427,24708,28617.82
1428,24728,28637.87
1429,24744,28657.93
1430,24760,28677.98
1431,24772,28698.04
1432,24788,28718.09
1433,24804,28738.14
1434,24824,28758.20
1435,24840,28778.25
1436,24860,28798.31
1437,24876,28818.36
1438,24896,28838.42
1439,24912,28858.47
1440,24936,28878.53
1441,24956,28898.58
1442,24980,28918.64
1443,25000,28938.69
1444,25016,28958.74
1445,25020,28978.80
1446,25008,28998.85
1447,24988,29018.91
1448,24956,29038.96
1449,24936,29059.02
1450,24924,29079.07
1451,24920,29099.13
1452,24924,29119.18
1453,24932,29139.24
1454,24948,29159.29
1455,24964,29179.34
1456,24980,29199.40
1457,24996,29219.45
1458,25012,29239.51
1459,25028,29259.56
1460,25048,29279.62
1461,25064,29299.67
1462,25080,29319.73
1463,25092,29339.78
1464,25104,29359.84
1465,25116,29379.89
1466,25128,29399.94
1467,25136,29420.00
1468,25144,29440.05
1469,25152,29460.11
1470,25160,29480.16
1471,25168,29500.22
1472,25180,29520.27
1473,25192,29540.33
1474,25196,29560.38
1475,25192,29580.44
1476,25176,29600.49
1477,25152,29620.54
1478,25128,29640.60
1479,25104,29660.65
1480,25096,29680.71
1481,25100,29700.76
1482,25104,29720.82
1483,25120,29740.87
1484,25136,29760.93
1485,25152,29780.98
1486,25172,29801.03
1487,25188,29821.09
1488,25204,29841.14
1489,25216,29861.20
1490,25228,29881.25
1491,25240,29901.31
1492,25252,29921.36
1493,25260,29941.42
1494,25268,29961.47
1495,25280,29981.53
1496,25292,30001.58
1497,25304,30021.63
1498,25316,30041.69
1499,25332,30061.74
1500,25344,30081.80
1501,25360,30101.85
1502,25372,30121.91
1503,25384,30141.96
1504,25384,30162.02
1505,25368,30182.07
1506,25344,30202.13
1507,25316,30222.18
1508,25284,30242.23
1509,25260,30262.29
1510,25252,30282.34
1511,25248,30302.40
1512,25256,30322.45
1513,25260,30342.51
1514,25264,30362.56
1515,25276,30382.62
1516,25284,30402.67
1517,25288,30422.73
1518,25292,30442.78
1519,25288,30462.83
1520,25288,30482.89
1521,25288,30502.94
1522,25292,30523.00
1523,25288,30543.05
1524,25292,30563.11
1525,25292,30583.16
1526,25296,30603.22
1527,25292,30623.27
1528,25288,30643.33
1529,25284,30663.38
1530,25276,30683.43
1531,25268,30703.49
1532,25244,30723.54
1533,25208,30743.60
1534,25164,30763.65
1535,25116,30783.71
1536,25076,30803.76
1537,25044,30823.82
1538,25020,30843.87
1539,25004,30863.93
1540,24992,30883.98
1541,24988,30904.03
1542,24984,30924.09
1543,24984,30944.14
1544,24980,30964.20
1545,24980,30984.25
1546,24976,31004.31
1547,24976,31024.36
1548,24972,31044.42
1549,24968,31064.47
1550,24968,31084.53
1551,24964,31104.58
1552,24964,31124.63
1553,24972,31144.69
1554,24976,31164.74
1555,24988,31184.80
1556,24996,31204.85
1557,25004,31224.91
1558,25008,31244.96
1559,25004,31265.02
1560,24980,31285.07
1561,24944,31305.12
1562,24904,31325.18
1563,24864,31345.23
1564,24836,31365.29
1565,24820,31385.34
1566,24808,31405.40
1567,24804,31425.45
1568,24804,31445.51
1569,24804,31465.56
1570,24808,31485.62
1571,24816,31505.67
1572,24824,31525.72
1573,24828,31545.78
1574,24836,31565.83
1575,24844,31585.89
1576,24844,31605.94
1577,24844,31626.00
1578,24848,31646.05
1579,24852,31666.11
1580,24856,31686.16
1581,24864,31706.22
1582,24868,31726.27
1583,24876,31746.32
1584,24884,31766.38
1585,24888,31786.43
1586,24892,31806.49
1587,24876,31826.54
1588,24840,31846.60
1589,24792,31866.65
1590,24740,31886.71
1591,24692,31906.76
1592,24664,31926.82
1593,24644,31946.87
1594,24636,31966.92
1595,24632,31986.98
1596,24628,32007.03
1597,24632,32027.09
1598,24636,32047.14
1599,24644,32067.20
1600,24648,32087.25
1601,24664,32107.31
1602,24664,32127.36
1603,24672,32147.42
1604,24676,32167.47
1605,24684,32187.52
1606,24692,32207.58
1607,24696,32227.63
1608,24708,32247.69
1609,24720,32267.74
1610,24732,32287.80
1611,24744,32307.85
1612,24760,32327.91
1613,24776,32347.96
1614,24792,32368.02
1615,24804,32388.07
1616,24808,32408.12
1617,24792,32428.18
1618,24756,32448.23
1619,24704,32468.29
1620,24660,32488.34
1621,24616,32508.40
1622,24592,32528.45
1623,24580,32548.51
1624,24584,32568.56
1625,24588,32588.61
1626,24600,32608.67
1627,24608,32628.72
1628,24620,32648.78
1629,24636,32668.83
1630,24648,32688.89
1631,24660,32708.94
1632,24672,32729.00
1633,24680,32749.05
1634,24688,32769.11
1635,24704,32789.16
1636,24716,32809.21
1637,24728,32829.27
1638,24744,32849.32
1639,24760,32869.38
1640,24772,32889.43
1641,24784,32909.49
1642,24800,32929.54
1643,24812,32949.60
1644,24824,32969.65
1645,24840,32989.71
1646,24860,33009.76
1647,24880,33029.81
1648,24892,33049.87
1649,24908,33069.92
1650,24920,33089.98
1651,24936,33110.03
1652,24940,33130.09
1653,24924,33150.14
1654,24888,33170.20
1655,24840,33190.25
1656,24788,33210.31
1657,24744,33230.36
1658,24716,33250.41
1659,24704,33270.47
1660,24700,33290.52
1661,24704,33310.58
1662,24720,33330.63
1663,24736,33350.69
1664,24752,33370.74
1665,24772,33390.80
1666,24796,33410.85
1667,24812,33430.91
1668,24824,33450.96
1669,24828,33471.01
1670,24836,33491.07
1671,24840,33511.12
1672,24844,33531.18
1673,24852,33551.23
1674,24864,33571.29
1675,24880,33591.34
1676,24896,33611.40
1677,24908,33631.45
1678,24920,33651.51
1679,24932,33671.56
1680,24940,33691.61
1681,24952,33711.67
1682,24964,33731.72
1683,24972,33751.78
1684,24984,33771.83
1685,25000,33791.89
1686,25008,33811.94
1687,25016,33832.00
1688,25008,33852.05
1689,24984,33872.11
1690,24936,33892.16
1691,24884,33912.21
1692,24832,33932.27
1693,24792,33952.32
1694,24768,33972.38
1695,24756,33992.43
1696,24756,34012.49
1697,24768,34032.54
1698,24776,34052.60
1699,24788,34072.65
1700,24804,34092.70
1701,24816,34112.76
1702,24828,34132.81
1703,24836,34152.87
1704,24840,34172.92
1705,24848,34192.98
1706,24860,34213.03
1707,24868,34233.09
1708,24880,34253.14
1709,24892,34273.20
1710,24904,34293.25
1711,24916,34313.30
1712,24932,34333.36
1713,24944,34353.41
1714,24960,34373.47
1715,24976,34393.52
1716,24988,34413.58
1717,25000,34433.63
1718,25016,34453.69
1719,25032,34473.74
1720,25044,34493.80
1721,25056,34513.85
1722,25064,34533.90
1723,25052,34553.96
1724,25020,34574.01
1725,24972,34594.07
1726,24920,34614.12
1727,24872,34634.18
1728,24844,34654.23
1729,24824,34674.29
1730,24824,34694.34
1731,24824,34714.40
1732,24836,34734.45
1733,24848,34754.50
1734,24864,34774.56
1735,24880,34794.61
1736,24892,34814.67
1737,24900,34834.72
1738,24912,34854.78
1739,24920,34874.83
1740,24924,34894.89
1741,24928,34914.94
1742,24932,34935.00
1743,24936,34955.05
1744,24944,34975.10
1745,24952,34995.16
1746,24968,35015.21
1747,24980,35035.27
1748,24996,35055.32
1749,25016,35075.38
1750,25024,35095.43
1751,25036,35115.49
1752,25048,35135.54
1753,25060,35155.60
1754,25060,35175.65
1755,25044,35195.70
1756,25008,35215.76
1757,24968,35235.81
1758,24928,35255.87
1759,24892,35275.92
1760,24872,35295.98
1761,24860,35316.03
1762,24860,35336.09
1763,24868,35356.14
1764,24880,35376.19
1765,24892,35396.25
1766,24908,35416.30
1767,24924,35436.36
1768,24936,35456.41
1769,24944,35476.47
1770,24952,35496.52
1771,24952,35516.58
1772,24952,35536.63
1773,24952,35556.69
1774,24952,35576.74
1775,24952,35596.79
1776,24956,35616.85
1777,24964,35636.90
1778,24972,35656.96
1779,24980,35677.01
1780,24996,35697.07
1781,25008,35717.12
1782,25020,35737.18
1783,25028,35757.23
1784,25020,35777.29
1785,24988,35797.34
1786,24944,35817.39
1787,24888,35837.45
1788,24840,35857.50
1789,24800,35877.56
1790,24780,35897.61
1791,24772,35917.67
1792,24764,35937.72
1793,24768,35957.78
1794,24768,35977.83
1795,24780,35997.89
1796,24788,36017.94
1797,24796,36037.99
1798,24804,36058.05
1799,24804,36078.10
1800,24804,36098.16
1801,24800,36118.21
1802,24792,36138.27
1803,24788,36158.32
1804,24784,36178.38
1805,24776,36198.43
1806,24776,36218.49
1807,24772,36238.54
1808,24776,36258.59
1809,24788,36278.65
1810,24796,36298.70
1811,24796,36318.76
1812,24788,36338.81
1813,24748,36358.87
1814,24688,36378.92
1815,24620,36398.98
1816,24552,36419.03
1817,24496,36439.09
1818,24456,36459.14
1819,24428,36479.19
1820,24416,36499.25
1821,24408,36519.30
1822,24404,36539.36
1823,24404,36559.41
1824,24412,36579.47
1825,24420,36599.52
1826,24424,36619.58
1827,24428,36639.63
1828,24428,36659.69
1829,24428,36679.74
1830,24432,36699.79
1831,24436,36719.85
1832,24444,36739.90
1833,24452,36759.96
1834,24460,36780.01
1835,24472,36800.07
1836,24484,36820.12
1837,24504,36840.18
1838,24520,36860.23
1839,24532,36880.28
1840,24540,36900.34
1841,24528,36920.39
1842,24484,36940.45
1843,24424,36960.50
1844,24364,36980.56
1845,24308,37000.61
1846,24268,37020.67
1847,24240,37040.72
1848,24220,37060.78
1849,24212,37080.83
1850,24212,37100.88
1851,24216,37120.94
1852,24220,37140.99
1853,24228,37161.05
1854,24232,37181.10
1855,24236,37201.16
1856,24232,37221.21
1857,24228,37241.27
1858,24216,37261.32
1859,24208,37281.38
1860,24196,37301.43
1861,24192,37321.48
1862,24180,37341.54
1863,24164,37361.59
1864,24144,37381.65
1865,24128,37401.70
1866,24116,37421.76
1867,24108,37441.81
1868,24108,37461.87
1869,24116,37481.92
1870,24116,37501.98
1871,24092,37522.03
1872,24048,37542.08
1873,23984,37562.14
1874,23920,37582.19
1875,23872,37602.25
1876,23840,37622.30
1877,23828,37642.36
1878,23824,37662.41
1879,23828,37682.47
1880,23836,37702.52
1881,23848,37722.58
1882,23864,37742.63
1883,23884,37762.68
1884,23904,37782.74
1885,23924,37802.79
1886,23940,37822.85
1887,23952,37842.90
1888,23960,37862.96
1889,23972,37883.01
1890,23984,37903.07
1891,24000,37923.12
1892,24016,37943.18
1893,24032,37963.23
1894,24044,37983.28
1895,24060,38003.34
1896,24076,38023.39
1897,24092,38043.45
1898,24108,38063.50
1899,24124,38083.56
1900,24140,38103.61
1901,24164,38123.67
1902,24180,38143.72
1903,24200,38163.77
1904,24212,38183.83
1905,24228,38203.88
1906,24236,38223.94
1907,24244,38243.99
1908,24240,38264.05
1909,24200,38284.10
1910,24140,38304.16
1911,24060,38324.21
1912,23992,38344.27
1913,23936,38364.32
1914,23904,38384.37
1915,23892,38404.43
1916,23892,38424.48
1917,23896,38444.54
1918,23904,38464.59
1919,23920,38484.65
1920,23940,38504.70
1921,23956,38524.76
1922,23976,38544.81
1923,23988,38564.87
1924,24000,38584.92
1925,24008,38604.97
1926,24016,38625.03
1927,24028,38645.08
1928,24036,38665.14
1929,24044,38685.19
1930,24052,38705.25
1931,24064,38725.30
1932,24076,38745.36
1933,24092,38765.41
1934,24108,38785.47
1935,24120,38805.52
1936,24136,38825.57
1937,24152,38845.63
1938,24164,38865.68
1939,24184,38885.74
1940,24200,38905.79
1941,24216,38925.85
1942,24232,38945.90
1943,24248,38965.96
1944,24244,38986.01
1945,24216,39006.07
1946,24164,39026.12
1947,24108,39046.17
1948,24056,39066.23
1949,24020,39086.28
1950,24000,39106.34
1951,23996,39126.39
1952,24004,39146.45
1953,24020,39166.50
1954,24032,39186.56
1955,24044,39206.61
1956,24060,39226.67
1957,24076,39246.72
1958,24088,39266.77
1959,24096,39286.83
1960,24100,39306.88
1961,24112,39326.94
1962,24124,39346.99
1963,24132,39367.05
1964,24148,39387.10
1965,24160,39407.16
1966,24176,39427.21
1967,24188,39447.27
1968,24204,39467.32
1969,24220,39487.37
1970,24236,39507.43
1971,24256,39527.48
1972,24272,39547.54
1973,24292,39567.59
1974,24312,39587.65
1975,24324,39607.70
1976,24344,39627.76
1977,24360,39647.81
1978,24372,39667.86
1979,24376,39687.92
1980,24352,39707.97
1981,24308,39728.03
1982,24256,39748.08
1983,24204,39768.14
1984,24164,39788.19
1985,24144,39808.25
1986,24136,39828.30
1987,24136,39848.36
1988,24144,39868.41
1989,24156,39888.46
1990,24172,39908.52
1991,24192,39928.57
1992,24208,39948.63
1993,24220,39968.68
1994,24228,39988.74
1995,24236,40008.79
1996,24236,40028.85
1997,24240,40048.90
1998,24240,40068.96
1999,24244,40089.01
2000,24248,40109.06
2001,24256,40129.12
2002,24268,40149.17
2003,24276,40169.23
2004,24288,40189.28
2005,24304,40209.34
2006,24316,40229.39
2007,24328,40249.45
2008,24340,40269.50
2009,24356,40289.56
2010,24372,40309.61
2011,24384,40329.66
2012,24388,40349.72
2013,24368,40369.77
2014,24328,40389.83
2015,24272,40409.88
2016,24224,40429.94
2017,24180,40449.99
2018,24152,40470.05
2019,24144,40490.10
2020,24140,40510.16
2021,24148,40530.21
2022,24160,40550.26
2023,24180,40570.32
2024,24196,40590.37
2025,24212,40610.43
2026,24224,40630.48
2027,24232,40650.54
2028,24236,40670.59
2029,24232,40690.65
2030,24236,40710.70
2031,24236,40730.76
2032,24240,40750.81
2033,24248,40770.86
2034,24252,40790.92
2035,24264,40810.97
2036,24268,40831.03
2037,24280,40851.08
2038,24288,40871.14
2039,24300,40891.19
2040,24308,40911.25
2041,24312,40931.30
2042,24296,40951.35
2043,24260,40971.41
2044,24200,40991.46
2045,24140,41011.52
2046,24084,41031.57
2047,24040,41051.63
2048,24016,41071.68
2049,24000,41091.74
2050,24000,41111.79
2051,24004,41131.85
2052,24016,41151.90
2053,24028,41171.95
2054,24040,41192.01
2055,24056,41212.06
2056,24068,41232.12
2057,24076,41252.17
2058,24084,41272.23
2059,24088,41292.28
2060,24092,41312.34
2061,24096,41332.39
2062,24100,41352.45
2063,24108,41372.50
2064,24112,41392.55
2065,24120,41412.61
2066,24128,41432.66
2067,24136,41452.72
2068,24152,41472.77
2069,24160,41492.83
2070,24168,41512.88
2071,24152,41532.94
2072,24116,41552.99
2073,24060,41573.05
2074,23996,41593.10
2075,23936,41613.15
2076,23896,41633.21
2077,23868,41653.26
2078,23856,41673.32
2079,23856,41693.37
2080,23864,41713.43
2081,23876,41733.48
2082,23892,41753.54
2083,23904,41773.59
2084,23920,41793.65
2085,23936,41813.70
2086,23944,41833.75
2087,23952,41853.81
2088,23956,41873.86
2089,23960,41893.92
2090,23968,41913.97
2091,23972,41934.03
2092,23972,41954.08
2093,23976,41974.14
2094,23988,41994.19
2095,24000,42014.25
2096,24008,42034.30
2097,24016,42054.35
2098,24024,42074.41
2099,24024,42094.46
2100,23988,42114.52
2101,23928,42134.57
2102,23860,42154.63
2103,23796,42174.68
2104,23744,42194.74
2105,23704,42214.79
2106,23684,42234.84
2107,23676,42254.90
2108,23676,42274.95
2109,23680,42295.01
2110,23688,42315.06
2111,23700,42335.12
2112,23712,42355.17
2113,23728,42375.23
2114,23744,42395.28
2115,23756,42415.34
2116,23764,42435.39
2117,23768,42455.44
2118,23776,42475.50
2119,23784,42495.55
2120,23800,42515.61
2121,23816,42535.66
2122,23828,42555.72
2123,23848,42575.77
2124,23860,42595.83
2125,23876,42615.88
2126,23896,42635.94
2127,23912,42655.99
2128,23932,42676.04
2129,23928,42696.10
2130,23896,42716.15
2131,23836,42736.21
2132,23772,42756.26
2133,23720,42776.32
2134,23680,42796.37
2135,23660,42816.43
2136,23656,42836.48
2137,23656,42856.54
2138,23664,42876.59
2139,23676,42896.64
2140,23692,42916.70
2141,23712,42936.75
2142,23732,42956.81
2143,23752,42976.86
2144,23764,42996.92
2145,23776,43016.97
2146,23784,43037.03
2147,23796,43057.08
2148,23804,43077.14
2149,23820,43097.19
2150,23832,43117.24
2151,23848,43137.30
2152,23860,43157.35
2153,23868,43177.41
2154,23888,43197.46
2155,23900,43217.52
2156,23916,43237.57
2157,23936,43257.63
2158,23948,43277.68
2159,23964,43297.74
2160,23988,43317.79
2161,23992,43337.84
2162,23972,43357.90
2163,23924,43377.95
2164,23860,43398.01
2165,23792,43418.06
2166,23748,43438.12
2167,23724,43458.17
2168,23716,43478.23
2169,23720,43498.28
2170,23732,43518.34
2171,23748,43538.39
2172,23760,43558.44
2173,23776,43578.50
2174,23792,43598.55
2175,23804,43618.61
2176,23820,43638.66
2177,23828,43658.72
2178,23840,43678.77
2179,23844,43698.83
2180,23856,43718.88
2181,23872,43738.93
2182,23888,43758.99
2183,23904,43779.04
2184,23924,43799.10
2185,23944,43819.15
2186,23964,43839.21
2187,23988,43859.26
2188,24008,43879.32
2189,24032,43899.37
2190,24052,43919.43
2191,24076,43939.48
2192,24100,43959.53
2193,24120,43979.59
2194,24128,43999.64
2195,24104,44019.70
2196,24052,44039.75
2197,23988,44059.81
2198,23928,44079.86
2199,23884,44099.92
2200,23868,44119.97
2201,23864,44140.03
2202,23876,44160.08
2203,23896,44180.13
2204,23920,44200.19
2205,23948,44220.24
2206,23972,44240.30
2207,23992,44260.35
2208,24016,44280.41
2209,24028,44300.46
2210,24040,44320.52
2211,24048,44340.57
2212,24060,44360.63
2213,24064,44380.68
2214,24068,44400.73
2215,24072,44420.79
2216,24080,44440.84
2217,24092,44460.90
2218,24100,44480.95
2219,24108,44501.01
2220,24124,44521.06
2221,24136,44541.12
2222,24152,44561.17
2223,24168,44581.23
2224,24180,44601.28
2225,24192,44621.33
2226,24200,44641.39
2227,24192,44661.44
2228,24156,44681.50
2229,24096,44701.55
2230,24028,44721.61
2231,23972,44741.66
2232,23936,44761.72
2233,23916,44781.77
2234,23916,44801.83
2235,23924,44821.88
2236,23936,44841.93
2237,23960,44861.99
2238,23984,44882.04
2239,24004,44902.10
2240,24024,44922.15
2241,24040,44942.21
2242,24052,44962.26
2243,24060,44982.32
2244,24064,45002.37
2245,24064,45022.42
2246,24068,45042.48
2247,24076,45062.53
2248,24080,45082.59
2249,24092,45102.64
2250,24100,45122.70
2251,24116,45142.75
2252,24128,45162.81
2253,24136,45182.86
2254,24144,45202.92
2255,24148,45222.97
2256,24144,45243.02
2257,24124,45263.08
2258,24084,45283.13
2259,24028,45303.19
2260,23960,45323.24
2261,23896,45343.30
2262,23852,45363.35
2263,23824,45383.41
2264,23812,45403.46
2265,23816,45423.52
2266,23828,45443.57
2267,23840,45463.62
2268,23860,45483.68
2269,23880,45503.73
2270,23904,45523.79
2271,23928,45543.84
2272,23940,45563.90
2273,23956,45583.95
2274,23968,45604.01
2275,23984,45624.06
2276,24004,45644.12
2277,24020,45664.17
2278,24040,45684.22
2279,24056,45704.28
2280,24076,45724.33
2281,24092,45744.39
2282,24112,45764.44
2283,24136,45784.50
2284,24156,45804.55
2285,24172,45824.61
2286,24168,45844.66
2287,24144,45864.72
2288,24100,45884.77
2289,24040,45904.82
2290,23984,45924.88
2291,23940,45944.93
2292,23908,45964.99
2293,23892,45985.04
2294,23888,46005.10
2295,23892,46025.15
2296,23900,46045.21
2297,23912,46065.26
2298,23928,46085.32
2299,23948,46105.37
2300,23964,46125.42
2301,23980,46145.48
2302,23984,46165.53
2303,23988,46185.59
2304,23988,46205.64
2305,23992,46225.70
2306,24000,46245.75
2307,24008,46265.81
2308,24028,46285.86
2309,24036,46305.92
2310,24056,46325.97
2311,24068,46346.02
2312,24088,46366.08
2313,24104,46386.13
2314,24120,46406.19
2315,24104,46426.24
2316,24060,46446.30
2317,23996,46466.35
2318,23932,46486.41
2319,23880,46506.46
2320,23844,46526.51
2321,23828,46546.57
2322,23832,46566.62
2323,23836,46586.68
2324,23852,46606.73
2325,23868,46626.79
2326,23888,46646.84
2327,23912,46666.90
2328,23928,46686.95
2329,23944,46707.01
2330,23952,46727.06
2331,23964,46747.11
2332,23972,46767.17
2333,23976,46787.22
2334,23984,46807.28
2335,23992,46827.33
2336,24004,46847.39
2337,24020,46867.44
2338,24032,46887.50
2339,24048,46907.55
2340,24072,46927.61
2341,24092,46947.66
2342,24112,46967.71
2343,24132,46987.77
2344,24128,47007.82
2345,24088,47027.88
2346,24020,47047.93
2347,23944,47067.99
2348,23876,47088.04
2349,23828,47108.10
2350,23796,47128.15
2351,23792,47148.21
2352,23792,47168.26
2353,23804,47188.31
2354,23816,47208.37
2355,23836,47228.42
2356,23860,47248.48
2357,23888,47268.53
2358,23912,47288.59
2359,23936,47308.64
2360,23960,47328.70
2361,23976,47348.75
2362,24000,47368.81
2363,24024,47388.86
2364,24048,47408.91
2365,24064,47428.97
2366,24084,47449.02
2367,24100,47469.08
2368,24120,47489.13
2369,24140,47509.19
2370,24164,47529.24
2371,24184,47549.30
2372,24208,47569.35
2373,24224,47589.41
2374,24248,47609.46
2375,24268,47629.51
2376,24284,47649.57
2377,24300,47669.62
2378,24292,47689.68
2379,24252,47709.73
2380,24184,47729.79
2381,24104,47749.84
2382,24036,47769.90
2383,23996,47789.95
2384,23972,47810.00
2385,23964,47830.06
2386,23964,47850.11
2387,23976,47870.17
2388,23992,47890.22
2389,24012,47910.28
2390,24032,47930.33
2391,24056,47950.39
2392,24072,47970.44
2393,24088,47990.50
2394,24096,48010.55
2395,24108,48030.60
2396,24116,48050.66
2397,24128,48070.71
2398,24136,48090.77
2399,24152,48110.82
2400,24168,48130.88
2401,24192,48150.93
2402,24212,48170.99
2403,24232,48191.04
2404,24252,48211.10
2405,24276,48231.15
2406,24296,48251.20
2407,24316,48271.26
2408,24340,48291.31
2409,24364,48311.37
2410,24384,48331.42
2411,24408,48351.48
2412,24432,48371.53
2413,24456,48391.59
2414,24476,48411.64
2415,24472,48431.70
2416,24448,48451.75
2417,24400,48471.80
2418,24340,48491.86
2419,24288,48511.91
2420,24252,48531.97
2421,24232,48552.02
2422,24228,48572.08
2423,24232,48592.13
2424,24244,48612.19
2425,24260,48632.24
2426,24280,48652.30
2427,24300,48672.35
2428,24316,48692.40
2429,24332,48712.46
2430,24348,48732.51
2431,24360,48752.57
2432,24372,48772.62
2433,24380,48792.68
2434,24392,48812.73
2435,24404,48832.79
2436,24416,48852.84
2437,24428,48872.90
2438,24444,48892.95
2439,24456,48913.00
2440,24472,48933.06
2441,24492,48953.11
2442,24508,48973.17
2443,24528,48993.22
2444,24548,49013.28
2445,24568,49033.33
2446,24588,49053.39
2447,24604,49073.44
2448,24620,49093.50
2449,24632,49113.55
2450,24652,49133.60
2451,24660,49153.66
2452,24640,49173.71
2453,24612,49193.77
2454,24568,49213.82
2455,24528,49233.88
2456,24492,49253.93
2457,24472,49273.99
2458,24464,49294.04
2459,24468,49314.09
2460,24476,49334.15
2461,24488,49354.20
2462,24504,49374.26
2463,24516,49394.31
2464,24528,49414.37
2465,24540,49434.42
2466,24548,49454.48
2467,24552,49474.53
2468,24552,49494.59
2469,24556,49514.64
2470,24556,49534.69
2471,24568,49554.75
2472,24572,49574.80
2473,24580,49594.86
2474,24588,49614.91
2475,24600,49634.97
2476,24620,49655.02
2477,24628,49675.08
2478,24640,49695.13
2479,24648,49715.19
2480,24656,49735.24
2481,24668,49755.29
2482,24680,49775.35
2483,24692,49795.40
2484,24700,49815.46
2485,24688,49835.51
2486,24660,49855.57
2487,24616,49875.62
2488,24572,49895.68
2489,24528,49915.73
2490,24500,49935.79
2491,24480,49955.84
2492,24468,49975.89
2493,24468,49995.95
2494,24472,50016.00
2495,24488,50036.06
2496,24500,50056.11
2497,24516,50076.17
2498,24528,50096.22
2499,24536,50116.28
2500,24548,50136.33
2501,24556,50156.39
2502,24564,50176.44
2503,24568,50196.49
2504,24576,50216.55
2505,24584,50236.60
2506,24604,50256.66
2507,24616,50276.71
2508,24632,50296.77
2509,24644,50316.82
2510,24656,50336.88
2511,24664,50356.93
2512,24672,50376.99
2513,24676,50397.04
2514,24676,50417.09
2515,24664,50437.15
2516,24636,50457.20
2517,24588,50477.26
2518,24536,50497.31
2519,24480,50517.37
2520,24432,50537.42
2521,24396,50557.48
2522,24368,50577.53
2523,24356,50597.58
2524,24348,50617.64
2525,24348,50637.69
2526,24352,50657.75
2527,24356,50677.80
2528,24368,50697.86
2529,24372,50717.91
2530,24372,50737.97
2531,24368,50758.02
2532,24356,50778.08
2533,24344,50798.13
2534,24332,50818.18
2535,24320,50838.24
2536,24316,50858.29
2537,24312,50878.35
2538,24312,50898.40
2539,24320,50918.46
2540,24332,50938.51
2541,24348,50958.57
2542,24356,50978.62
2543,24368,50998.68
2544,24384,51018.73
2545,24404,51038.78
2546,24404,51058.84
2547,24384,51078.89
2548,24344,51098.95
2549,24296,51119.00
2550,24252,51139.06
2551,24212,51159.11
2552,24192,51179.17
2553,24180,51199.22
2554,24180,51219.28
2555,24188,51239.33
2556,24200,51259.38
2557,24220,51279.44
2558,24236,51299.49
2559,24252,51319.55
2560,24268,51339.60
2561,24280,51359.66
2562,24296,51379.71
2563,24308,51399.77
2564,24320,51419.82
2565,24336,51439.88
2566,24352,51459.93
2567,24368,51479.98
2568,24384,51500.04
2569,24400,51520.09
2570,24416,51540.15
2571,24432,51560.20
2572,24444,51580.26
2573,24460,51600.31
2574,24476,51620.37
2575,24488,51640.42
2576,24504,51660.48
2577,24520,51680.53
2578,24528,51700.58
2579,24524,51720.64
2580,24496,51740.69
2581,24448,51760.75
2582,24388,51780.80
2583,24332,51800.86
2584,24288,51820.91
2585,24260,51840.97
2586,24248,51861.02
2587,24244,51881.08
2588,24248,51901.13
2589,24252,51921.18
2590,24264,51941.24
2591,24272,51961.29
2592,24288,51981.35
2593,24296,52001.40
2594,24308,52021.46
2595,24320,52041.51
2596,24332,52061.57
2597,24340,52081.62
2598,24348,52101.67
2599,24356,52121.73
2600,24364,52141.78
2601,24372,52161.84
2602,24384,52181.89
2603,24400,52201.95
2604,24416,52222.00
2605,24432,52242.06
2606,24448,52262.11
2607,24472,52282.17
2608,24488,52302.22
2609,24508,52322.27
2610,24516,52342.33
2611,24532,52362.38
2612,24548,52382.44
2613,24556,52402.49
2614,24540,52422.55
2615,24504,52442.60
2616,24448,52462.66
2617,24388,52482.71
2618,24332,52502.77
2619,24292,52522.82
2620,24272,52542.87
2621,24268,52562.93
2622,24268,52582.98
2623,24276,52603.04
2624,24288,52623.09
2625,24308,52643.15
2626,24324,52663.20
2627,24344,52683.26
2628,24360,52703.31
2629,24380,52723.37
2630,24388,52743.42
2631,24396,52763.47
2632,24404,52783.53
2633,24416,52803.58
2634,24424,52823.64
2635,24436,52843.69
2636,24448,52863.75
2637,24464,52883.80
2638,24484,52903.86
2639,24500,52923.91
2640,24516,52943.97
2641,24528,52964.02
2642,24548,52984.07
2643,24564,53004.13
2644,24584,53024.18
2645,24600,53044.24
2646,24620,53064.29
2647,24632,53084.35
2648,24648,53104.40
2649,24660,53124.46
2650,24664,53144.51
2651,24640,53164.57
2652,24600,53184.62
2653,24540,53204.67
2654,24480,53224.73
2655,24424,53244.78
2656,24392,53264.84
2657,24372,53284.89
2658,24368,53304.95
2659,24372,53325.00
2660,24380,53345.06
2661,24392,53365.11
2662,24408,53385.16
2663,24424,53405.22
2664,24436,53425.27
2665,24448,53445.33
2666,24456,53465.38
2667,24460,53485.44
2668,24460,53505.49
2669,24460,53525.55
2670,24464,53545.60
2671,24468,53565.66
2672,24476,53585.71
2673,24480,53605.76
2674,24496,53625.82
2675,24512,53645.87
2676,24524,53665.93
2677,24540,53685.98
2678,24556,53706.04
2679,24568,53726.09
2680,24580,53746.15
2681,24592,53766.20
2682,24604,53786.26
2683,24624,53806.31
2684,24632,53826.36
2685,24616,53846.42
2686,24580,53866.47
2687,24524,53886.53
2688,24464,53906.58
2689,24412,53926.64
2690,24372,53946.69
2691,24352,53966.75
2692,24344,53986.80
2693,24348,54006.86
2694,24360,54026.91
2695,24372,54046.96
2696,24392,54067.02
2697,24408,54087.07
2698,24424,54107.13
2699,24432,54127.18
2700,24436,54147.24
2701,24440,54167.29
2702,24444,54187.35
2703,24448,54207.40
2704,24448,54227.46
2705,24456,54247.51
2706,24464,54267.56
2707,24472,54287.62
2708,24484,54307.67
2709,24500,54327.73
2710,24508,54347.78
2711,24520,54367.84
2712,24536,54387.89
2713,24548,54407.95
2714,24560,54428.00
2715,24572,54448.06
2716,24584,54468.11
2717,24568,54488.16
2718,24528,54508.22
2719,24464,54528.27
2720,24392,54548.33
2721,24332,54568.38
2722,24288,54588.44
2723,24260,54608.49
2724,24252,54628.55
2725,24252,54648.60
2726,24260,54668.66
2727,24272,54688.71
2728,24288,54708.76
2729,24308,54728.82
2730,24320,54748.87
2731,24336,54768.93
2732,24340,54788.98
2733,24344,54809.04
2734,24344,54829.09
2735,24344,54849.15
2736,24344,54869.20
2737,24344,54889.25
2738,24344,54909.31
2739,24348,54929.36
2740,24356,54949.42
2741,24368,54969.47
2742,24384,54989.53
2743,24396,55009.58
2744,24408,55029.64
2745,24424,55049.69
2746,24440,55069.75
2747,24456,55089.80
2748,24452,55109.85
2749,24416,55129.91
2750,24352,55149.96
2751,24272,55170.02
2752,24192,55190.07
2753,24136,55210.13
2754,24096,55230.18
2755,24080,55250.24
2756,24072,55270.29
2757,24072,55290.35
2758,24080,55310.40
2759,24092,55330.45
2760,24108,55350.51
2761,24124,55370.56
2762,24140,55390.62
2763,24152,55410.67
2764,24160,55430.73
2765,24164,55450.78
2766,24168,55470.84
2767,24172,55490.89
2768,24176,55510.95
2769,24180,55531.00
2770,24188,55551.05
2771,24196,55571.11
2772,24204,55591.16
2773,24216,55611.22
2774,24228,55631.27
2775,24244,55651.33
2776,24256,55671.38
2777,24268,55691.44
2778,24284,55711.49
2779,24296,55731.55
2780,24308,55751.60
2781,24304,55771.65
2782,24264,55791.71
2783,24196,55811.76
2784,24104,55831.82
2785,24024,55851.87
2786,23968,55871.93
2787,23928,55891.98
2788,23916,55912.04
2789,23916,55932.09
2790,23920,55952.15
2791,23928,55972.20
2792,23944,55992.25
2793,23964,56012.31
2794,23984,56032.36
2795,24004,56052.42
2796,24016,56072.47
2797,24024,56092.53
2798,24032,56112.58
2799,24040,56132.64
2800,24044,56152.69
2801,24056,56172.74
2802,24068,56192.80
2803,24080,56212.85
2804,24096,56232.91
2805,24112,56252.96
2806,24132,56273.02
2807,24148,56293.07
2808,24164,56313.13
2809,24184,56333.18
2810,24200,56353.24
2811,24220,56373.29
2812,24240,56393.34
2813,24256,56413.40
2814,24280,56433.45
2815,24296,56453.51
2816,24316,56473.56
2817,24328,56493.62
2818,24348,56513.67
2819,24360,56533.73
2820,24348,56553.78
2821,24300,56573.84
2822,24220,56593.89
2823,24128,56613.94
2824,24044,56634.00
2825,23980,56654.05
2826,23948,56674.11
2827,23932,56694.16
2828,23932,56714.22
2829,23936,56734.27
2830,23944,56754.33
2831,23960,56774.38
2832,23980,56794.44
2833,24000,56814.49
2834,24016,56834.54
2835,24024,56854.60
2836,24032,56874.65
2837,24036,56894.71
2838,24040,56914.76
2839,24048,56934.82
2840,24056,56954.87
2841,24064,56974.93
2842,24080,56994.98
2843,24092,57015.04
2844,24108,57035.09
2845,24124,57055.14
2846,24140,57075.20
2847,24160,57095.25
2848,24180,57115.31
2849,24196,57135.36
2850,24216,57155.42
2851,24236,57175.47
2852,24256,57195.53
2853,24276,57215.58
2854,24292,57235.64
2855,24312,57255.69
2856,24328,57275.74
2857,24344,57295.80
2858,24364,57315.85
2859,24380,57335.91
2860,24400,57355.96
2861,24416,57376.02
2862,24428,57396.07
2863,24412,57416.13
2864,24360,57436.18
2865,24276,57456.23
2866,24180,57476.29
2867,24096,57496.34
2868,24036,57516.40
2869,24004,57536.45
2870,23992,57556.51
2871,23996,57576.56
2872,24004,57596.62
2873,24024,57616.67
2874,24040,57636.73
2875,24060,57656.78
2876,24072,57676.83
2877,24084,57696.89
2878,24096,57716.94
2879,24100,57737.00
2880,24104,57757.05
2881,24108,57777.11
2882,24108,57797.16
2883,24116,57817.22
2884,24124,57837.27
2885,24132,57857.33
2886,24144,57877.38
2887,24160,57897.43
2888,24176,57917.49
2889,24192,57937.54
2890,24212,57957.60
2891,24232,57977.65
2892,24252,57997.71
2893,24268,58017.76
2894,24284,58037.82
2895,24304,58057.87
2896,24316,58077.93
2897,24332,58097.98
2898,24348,58118.03
2899,24364,58138.09
2900,24384,58158.14
2901,24384,58178.20
2902,24364,58198.25
2903,24308,58218.31
2904,24232,58238.36
2905,24156,58258.42
2906,24092,58278.47
2907,24052,58298.53
2908,24032,58318.58
2909,24036,58338.63
2910,24048,58358.69
2911,24068,58378.74
2912,24100,58398.80
2913,24128,58418.85
2914,24152,58438.91
2915,24172,58458.96
2916,24184,58479.02
2917,24196,58499.07
2918,24196,58519.13
2919,24200,58539.18
2920,24196,58559.23
2921,24200,58579.29
2922,24204,58599.34
2923,24212,58619.40
2924,24224,58639.45
2925,24240,58659.51
2926,24256,58679.56
2927,24272,58699.62
2928,24292,58719.67
2929,24312,58739.73
2930,24332,58759.78
2931,24352,58779.83
2932,24368,58799.89
2933,24384,58819.94
2934,24400,58840.00
2935,24416,58860.05
2936,24424,58880.11
2937,24412,58900.16
2938,24360,58920.22
2939,24284,58940.27
2940,24200,58960.32
2941,24124,58980.38
2942,24072,59000.43
2943,24044,59020.49
2944,24032,59040.54
2945,24032,59060.60
2946,24048,59080.65
2947,24072,59100.71
2948,24100,59120.76
2949,24124,59140.82
2950,24148,59160.87
2951,24164,59180.92
2952,24176,59200.98
2953,24180,59221.03
2954,24176,59241.09
2955,24176,59261.14
2956,24180,59281.20
2957,24180,59301.25
2958,24188,59321.31
2959,24200,59341.36
2960,24216,59361.42
2961,24232,59381.47
2962,24248,59401.52
2963,24264,59421.58
2964,24284,59441.63
2965,24300,59461.69
2966,24320,59481.74
2967,24336,59501.80
2968,24356,59521.85
2969,24372,59541.91
2970,24360,59561.96
2971,24312,59582.02
2972,24232,59602.07
2973,24140,59622.12
2974,24056,59642.18
2975,23996,59662.23
2976,23956,59682.29
2977,23936,59702.34
2978,23932,59722.40
2979,23936,59742.45
2980,23944,59762.51
2981,23960,59782.56
2982,23980,59802.62
2983,24000,59822.67
2984,24016,59842.72
2985,24032,59862.78
2986,24036,59882.83
2987,24040,59902.89
2988,24044,59922.94
2989,24048,59943.00
2990,24048,59963.05
2991,24052,59983.11
2992,24060,60003.16
2993,24072,60023.22
2994,24088,60043.27
2995,24108,60063.32
2996,24124,60083.38
2997,24144,60103.43
2998,24164,60123.49
2999,24180,60143.54
