Sample_Index,IR_Value,Timestamp_ms
0,19840,0.00
1,19608,24.08
2,19456,48.15
3,19504,72.23
4,19636,96.31
5,19764,120.38
6,19904,144.46
7,20032,168.54
8,20152,192.61
9,20272,216.69
10,20352,240.77
11,20424,264.84
12,20504,288.92
13,20612,313.00
14,20748,337.08
15,20880,361.15
16,21008,385.23
17,21120,409.31
18,21208,433.38
19,21272,457.46
20,21312,481.54
21,21344,505.61
22,21372,529.69
23,21412,553.77
24,21440,577.84
25,21480,601.92
26,21516,626.00
27,21540,650.07
28,21556,674.15
29,21552,698.23
30,21520,722.30
31,21472,746.38
32,21412,770.46
33,21352,794.53
34,21296,818.61
35,21248,842.69
36,21212,866.76
37,21180,890.84
38,21160,914.92
39,21148,938.99
40,21136,963.07
41,21124,987.15
42,21108,1011.23
43,21084,1035.30
44,21056,1059.38
45,21020,1083.46
46,20980,1107.53
47,20912,1131.61
48,20820,1155.69
49,20736,1179.76
50,20660,1203.84
51,20604,1227.92
52,20576,1251.99
53,20572,1276.07
54,20584,1300.15
55,20600,1324.22
56,20592,1348.30
57,20592,1372.38
58,20592,1396.45
59,20588,1420.53
60,20588,1444.61
61,20592,1468.68
62,20588,1492.76
63,20564,1516.84
64,20576,1540.91
65,20612,1564.99
66,20648,1589.07
67,20692,1613.14
68,20744,1637.22
69,20816,1661.30
70,20880,1685.38
71,20940,1709.45
72,21004,1733.53
73,21064,1757.61
74,21116,1781.68
75,21160,1805.76
76,21188,1829.84
77,21180,1853.91
78,21148,1877.99
79,21092,1902.07
80,21036,1926.14
81,20996,1950.22
82,20976,1974.30
83,20980,1998.37
84,20996,2022.45
85,21020,2046.53
86,21056,2070.60
87,21096,2094.68
88,21136,2118.76
89,21168,2142.83
90,21192,2166.91
91,21216,2190.99
92,21228,2215.06
93,21236,2239.14
94,21244,2263.22
95,21244,2287.29
96,21256,2311.37
97,21272,2335.45
98,21284,2359.53
99,21300,2383.60
100,21316,2407.68
101,21336,2431.76
102,21364,2455.83
103,21384,2479.91
104,21412,2503.99
105,21440,2528.06
106,21452,2552.14
107,21440,2576.22
108,21396,2600.29
109,21340,2624.37
110,21272,2648.45
111,21216,2672.52
112,21184,2696.60
113,21172,2720.68
114,21176,2744.75
115,21188,2768.83
116,21208,2792.91
117,21232,2816.98
118,21256,2841.06
119,21280,2865.14
120,21292,2889.21
121,21300,2913.29
122,21300,2937.37
123,21296,2961.44
124,21296,2985.52
125,21296,3009.60
126,21296,3033.68
127,21304,3057.75
128,21316,3081.83
129,21324,3105.91
130,21344,3129.98
131,21364,3154.06
132,21380,3178.14
133,21404,3202.21
134,21420,3226.29
135,21428,3250.37
136,21404,3274.44
137,21344,3298.52
138,21272,3322.60
139,21204,3346.67
140,21148,3370.75
141,21116,3394.83
142,21104,3418.90
143,21104,3442.98
144,21120,3467.06
145,21140,3491.13
146,21160,3515.21
147,21172,3539.29
148,21184,3563.36
149,21184,3587.44
150,21184,3611.52
151,21176,3635.59
152,21176,3659.67
153,21176,3683.75
154,21180,3707.83
155,21188,3731.90
156,21200,3755.98
157,21212,3780.06
158,21232,3804.13
159,21248,3828.21
160,21264,3852.29
161,21280,3876.36
162,21296,3900.44
163,21304,3924.52
164,21276,3948.59
165,21204,3972.67
166,21120,3996.75
167,21028,4020.82
168,20960,4044.90
169,20916,4068.98
170,20900,4093.05
171,20896,4117.13
172,20904,4141.21
173,20912,4165.28
174,20936,4189.36
175,20960,4213.44
176,20984,4237.51
177,21004,4261.59
178,21008,4285.67
179,21016,4309.74
180,21020,4333.82
181,21020,4357.90
182,21028,4381.98
183,21032,4406.05
184,21044,4430.13
185,21064,4454.21
186,21084,4478.28
187,21100,4502.36
188,21120,4526.44
189,21140,4550.51
190,21164,4574.59
191,21184,4598.67
192,21204,4622.74
193,21228,4646.82
194,21228,4670.90
195,21192,4694.97
196,21112,4719.05
197,21012,4743.13
198,20912,4767.20
199,20840,4791.28
200,20796,4815.36
201,20780,4839.43
202,20784,4863.51
203,20792,4887.59
204,20808,4911.66
205,20828,4935.74
206,20852,4959.82
207,20876,4983.89
208,20896,5007.97
209,20908,5032.05
210,20916,5056.13
211,20920,5080.20
212,20916,5104.28
213,20920,5128.36
214,20928,5152.43
215,20940,5176.51
216,20956,5200.59
217,20980,5224.66
218,21000,5248.74
219,21024,5272.82
220,21048,5296.89
221,21068,5320.97
222,21092,5345.05
223,21112,5369.12
224,21140,5393.20
225,21160,5417.28
226,21184,5441.35
227,21196,5465.43
228,21184,5489.51
229,21124,5513.58
230,21032,5537.66
231,20932,5561.74
232,20848,5585.81
233,20800,5609.89
234,20776,5633.97
235,20776,5658.04
236,20788,5682.12
237,20812,5706.20
238,20840,5730.28
239,20872,5754.35
240,20896,5778.43
241,20924,5802.51
242,20940,5826.58
243,20944,5850.66
244,20948,5874.74
245,20948,5898.81
246,20952,5922.89
247,20960,5946.97
248,20968,5971.04
249,20988,5995.12
250,21004,6019.20
251,21028,6043.27
252,21040,6067.35
253,21068,6091.43
254,21088,6115.50
255,21108,6139.58
256,21124,6163.66
257,21144,6187.73
258,21164,6211.81
259,21188,6235.89
260,21196,6259.96
261,21172,6284.04
262,21108,6308.12
263,21012,6332.19
264,20920,6356.27
265,20844,6380.35
266,20800,6404.43
267,20784,6428.50
268,20792,6452.58
269,20808,6476.66
270,20836,6500.73
271,20868,6524.81
272,20900,6548.89
273,20932,6572.96
274,20956,6597.04
275,20972,6621.12
276,20976,6645.19
277,20976,6669.27
278,20972,6693.35
279,20976,6717.42
280,20980,6741.50
281,20992,6765.58
282,21008,6789.65
283,21028,6813.73
284,21048,6837.81
285,21068,6861.88
286,21088,6885.96
287,21104,6910.04
288,21124,6934.11
289,21140,6958.19
290,21164,6982.27
291,21184,7006.34
292,21204,7030.42
293,21212,7054.50
294,21172,7078.58
295,21092,7102.65
296,20988,7126.73
297,20880,7150.81
298,20800,7174.88
299,20752,7198.96
300,20736,7223.04
301,20736,7247.11
302,20744,7271.19
303,20764,7295.27
304,20788,7319.34
305,20820,7343.42
306,20840,7367.50
307,20860,7391.57
308,20868,7415.65
309,20864,7439.73
310,20860,7463.80
311,20856,7487.88
312,20860,7511.96
313,20868,7536.03
314,20884,7560.11
315,20900,7584.19
316,20924,7608.26
317,20948,7632.34
318,20968,7656.42
319,20992,7680.49
320,21016,7704.57
321,21036,7728.65
322,21060,7752.73
323,21084,7776.80
324,21104,7800.88
325,21128,7824.96
326,21144,7849.03
327,21148,7873.11
328,21104,7897.19
329,21008,7921.26
330,20888,7945.34
331,20780,7969.42
332,20700,7993.49
333,20664,8017.57
334,20656,8041.65
335,20668,8065.72
336,20680,8089.80
337,20704,8113.88
338,20728,8137.95
339,20764,8162.03
340,20784,8186.11
341,20808,8210.18
342,20820,8234.26
343,20824,8258.34
344,20824,8282.41
345,20824,8306.49
346,20824,8330.57
347,20832,8354.64
348,20844,8378.72
349,20860,8402.80
350,20876,8426.88
351,20900,8450.95
352,20924,8475.03
353,20948,8499.11
354,20976,8523.18
355,20992,8547.26
356,21016,8571.34
357,21036,8595.41
358,21056,8619.49
359,21076,8643.57
360,21096,8667.64
361,21116,8691.72
362,21132,8715.80
363,21148,8739.87
364,21148,8763.95
365,21104,8788.03
366,21012,8812.10
367,20892,8836.18
368,20768,8860.26
369,20684,8884.33
370,20632,8908.41
371,20616,8932.49
372,20616,8956.56
373,20632,8980.64
374,20648,9004.72
375,20672,9028.80
376,20704,9052.87
377,20728,9076.95
378,20748,9101.03
379,20764,9125.10
380,20768,9149.18
381,20772,9173.26
382,20760,9197.33
383,20748,9221.41
384,20736,9245.49
385,20732,9269.56
386,20724,9293.64
387,20720,9317.72
388,20720,9341.79
389,20728,9365.87
390,20736,9389.95
391,20740,9414.02
392,20744,9438.10
393,20744,9462.18
394,20728,9486.25
395,20728,9510.33
396,20724,9534.41
397,20720,9558.48
398,20720,9582.56
399,20712,9606.64
400,20664,9630.71
401,20580,9654.79
402,20468,9678.87
403,20356,9702.95
404,20260,9727.02
405,20188,9751.10
406,20136,9775.18
407,20112,9799.25
408,20108,9823.33
409,20116,9847.41
410,20132,9871.48
411,20148,9895.56
412,20160,9919.64
413,20160,9943.71
414,20152,9967.79
415,20120,9991.87
416,20088,10015.94
417,20076,10040.02
418,20068,10064.10
419,20052,10088.17
420,20020,10112.25
421,19972,10136.33
422,19944,10160.40
423,19916,10184.48
424,19880,10208.56
425,19852,10232.63
426,19860,10256.71
427,19876,10280.79
428,19896,10304.86
429,19928,10328.94
430,19964,10353.02
431,20000,10377.10
432,20020,10401.17
433,20032,10425.25
434,19992,10449.33
435,19944,10473.40
436,19900,10497.48
437,19876,10521.56
438,19872,10545.63
439,19876,10569.71
440,19896,10593.79
441,19928,10617.86
442,19968,10641.94
443,20012,10666.02
444,20052,10690.09
445,20088,10714.17
446,20116,10738.25
447,20124,10762.32
448,20132,10786.40
449,20132,10810.48
450,20136,10834.55
451,20136,10858.63
452,20136,10882.71
453,20144,10906.78
454,20152,10930.86
455,20168,10954.94
456,20184,10979.01
457,20208,11003.09
458,20232,11027.17
459,20264,11051.25
460,20296,11075.32
461,20336,11099.40
462,20356,11123.48
463,20328,11147.55
464,20260,11171.63
465,20172,11195.71
466,20084,11219.78
467,20020,11243.86
468,19988,11267.94
469,19980,11292.01
470,19992,11316.09
471,20012,11340.17
472,20040,11364.24
473,20072,11388.32
474,20112,11412.40
475,20144,11436.47
476,20176,11460.55
477,20192,11484.63
478,20208,11508.70
479,20212,11532.78
480,20216,11556.86
481,20220,11580.93
482,20232,11605.01
483,20252,11629.09
484,20272,11653.16
485,20292,11677.24
486,20320,11701.32
487,20348,11725.40
488,20380,11749.47
489,20404,11773.55
490,20428,11797.63
491,20456,11821.70
492,20484,11845.78
493,20500,11869.86
494,20476,11893.93
495,20400,11918.01
496,20292,11942.09
497,20188,11966.16
498,20112,11990.24
499,20072,12014.32
500,20056,12038.39
501,20068,12062.47
502,20084,12086.55
503,20112,12110.62
504,20148,12134.70
505,20188,12158.78
506,20224,12182.85
507,20260,12206.93
508,20284,12231.01
509,20304,12255.08
510,20316,12279.16
511,20324,12303.24
512,20340,12327.31
513,20356,12351.39
514,20372,12375.47
515,20396,12399.55
516,20420,12423.62
517,20444,12447.70
518,20476,12471.78
519,20504,12495.85
520,20532,12519.93
521,20560,12544.01
522,20592,12568.08
523,20624,12592.16
524,20648,12616.24
525,20644,12640.31
526,20592,12664.39
527,20512,12688.47
528,20428,12712.54
529,20356,12736.62
530,20316,12760.70
531,20300,12784.77
532,20300,12808.85
533,20316,12832.93
534,20340,12857.00
535,20368,12881.08
536,20400,12905.16
537,20436,12929.23
538,20464,12953.31
539,20492,12977.39
540,20508,13001.46
541,20520,13025.54
542,20532,13049.62
543,20540,13073.70
544,20552,13097.77
545,20568,13121.85
546,20584,13145.93
547,20608,13170.00
548,20636,13194.08
549,20660,13218.16
550,20692,13242.23
551,20716,13266.31
552,20744,13290.39
553,20776,13314.46
554,20792,13338.54
555,20788,13362.62
556,20748,13386.69
557,20692,13410.77
558,20636,13434.85
559,20592,13458.92
560,20568,13483.00
561,20564,13507.08
562,20576,13531.15
563,20592,13555.23
564,20616,13579.31
565,20648,13603.38
566,20676,13627.46
567,20704,13651.54
568,20732,13675.61
569,20748,13699.69
570,20764,13723.77
571,20776,13747.85
572,20784,13771.92
573,20792,13796.00
574,20804,13820.08
575,20820,13844.15
576,20840,13868.23
577,20864,13892.31
578,20888,13916.38
579,20916,13940.46
580,20940,13964.54
581,20964,13988.61
582,20992,14012.69
583,21000,14036.77
584,20992,14060.84
585,20960,14084.92
586,20908,14109.00
587,20860,14133.07
588,20816,14157.15
589,20800,14181.23
590,20784,14205.30
591,20788,14229.38
592,20796,14253.46
593,20808,14277.53
594,20824,14301.61
595,20840,14325.69
596,20860,14349.76
597,20872,14373.84
598,20884,14397.92
599,20888,14422.00
600,20896,14446.07
601,20900,14470.15
602,20908,14494.23
603,20916,14518.30
604,20932,14542.38
605,20944,14566.46
606,20960,14590.53
607,20976,14614.61
608,20996,14638.69
609,21012,14662.76
610,21032,14686.84
611,21052,14710.92
612,21056,14734.99
613,21028,14759.07
614,20988,14783.15
615,20932,14807.22
616,20880,14831.30
617,20844,14855.38
618,20816,14879.45
619,20804,14903.53
620,20808,14927.61
621,20812,14951.68
622,20828,14975.76
623,20852,14999.84
624,20872,15023.91
625,20888,15047.99
626,20896,15072.07
627,20908,15096.15
628,20912,15120.22
629,20924,15144.30
630,20924,15168.38
631,20936,15192.45
632,20948,15216.53
633,20960,15240.61
634,20972,15264.68
635,20988,15288.76
636,21004,15312.84
637,21020,15336.91
638,21036,15360.99
639,21060,15385.07
640,21076,15409.14
641,21072,15433.22
642,21044,15457.30
643,21004,15481.37
644,20948,15505.45
645,20892,15529.53
646,20856,15553.60
647,20832,15577.68
648,20820,15601.76
649,20816,15625.83
650,20820,15649.91
651,20828,15673.99
652,20844,15698.06
653,20864,15722.14
654,20876,15746.22
655,20888,15770.30
656,20904,15794.37
657,20904,15818.45
658,20908,15842.53
659,20908,15866.60
660,20916,15890.68
661,20920,15914.76
662,20932,15938.83
663,20948,15962.91
664,20964,15986.99
665,20984,16011.06
666,21000,16035.14
667,21020,16059.22
668,21036,16083.29
669,21056,16107.37
670,21076,16131.45
671,21084,16155.52
672,21076,16179.60
673,21044,16203.68
674,20992,16227.75
675,20924,16251.83
676,20868,16275.91
677,20828,16299.98
678,20804,16324.06
679,20792,16348.14
680,20788,16372.21
681,20792,16396.29
682,20796,16420.37
683,20816,16444.45
684,20832,16468.52
685,20848,16492.60
686,20860,16516.68
687,20864,16540.75
688,20864,16564.83
689,20868,16588.91
690,20872,16612.98
691,20868,16637.06
692,20876,16661.14
693,20884,16685.21
694,20892,16709.29
695,20904,16733.37
696,20920,16757.44
697,20936,16781.52
698,20948,16805.60
699,20968,16829.67
700,20980,16853.75
701,21000,16877.83
702,21008,16901.90
703,21008,16925.98
704,20980,16950.06
705,20928,16974.13
706,20860,16998.21
707,20800,17022.29
708,20748,17046.36
709,20712,17070.44
710,20692,17094.52
711,20688,17118.60
712,20692,17142.67
713,20704,17166.75
714,20716,17190.83
715,20736,17214.90
716,20756,17238.98
717,20764,17263.06
718,20776,17287.13
719,20776,17311.21
720,20776,17335.29
721,20776,17359.36
722,20776,17383.44
723,20784,17407.52
724,20788,17431.59
725,20804,17455.67
726,20812,17479.75
727,20836,17503.82
728,20848,17527.90
729,20872,17551.98
730,20884,17576.05
731,20900,17600.13
732,20916,17624.21
733,20932,17648.28
734,20944,17672.36
735,20940,17696.44
736,20920,17720.51
737,20864,17744.59
738,20792,17768.67
739,20716,17792.75
740,20648,17816.82
741,20604,17840.90
742,20576,17864.98
743,20564,17889.05
744,20568,17913.13
745,20576,17937.21
746,20592,17961.28
747,20612,17985.36
748,20628,18009.44
749,20644,18033.51
750,20652,18057.59
751,20660,18081.67
752,20660,18105.74
753,20656,18129.82
754,20652,18153.90
755,20660,18177.97
756,20664,18202.05
757,20680,18226.13
758,20692,18250.20
759,20708,18274.28
760,20732,18298.36
761,20748,18322.43
762,20768,18346.51
763,20788,18370.59
764,20804,18394.67
765,20824,18418.74
766,20840,18442.82
767,20856,18466.90
768,20872,18490.97
769,20872,18515.05
770,20844,18539.13
771,20772,18563.20
772,20684,18587.28
773,20596,18611.36
774,20520,18635.43
775,20472,18659.51
776,20444,18683.59
777,20432,18707.66
778,20432,18731.74
779,20440,18755.82
780,20452,18779.89
781,20476,18803.97
782,20496,18828.05
783,20512,18852.12
784,20520,18876.20
785,20532,18900.28
786,20532,18924.35
787,20528,18948.43
788,20532,18972.51
789,20540,18996.58
790,20544,19020.66
791,20560,19044.74
792,20572,19068.82
793,20592,19092.89
794,20612,19116.97
795,20632,19141.05
796,20652,19165.12
797,20672,19189.20
798,20692,19213.28
799,20716,19237.35
800,20740,19261.43
801,20756,19285.51
802,20780,19309.58
803,20796,19333.66
804,20812,19357.74
805,20832,19381.81
806,20828,19405.89
807,20788,19429.97
808,20708,19454.04
809,20612,19478.12
810,20508,19502.20
811,20436,19526.27
812,20384,19550.35
813,20364,19574.43
814,20356,19598.50
815,20360,19622.58
816,20368,19646.66
817,20380,19670.73
818,20396,19694.81
819,20420,19718.89
820,20436,19742.97
821,20448,19767.04
822,20464,19791.12
823,20468,19815.20
824,20472,19839.27
825,20476,19863.35
826,20480,19887.43
827,20488,19911.50
828,20508,19935.58
829,20524,19959.66
830,20544,19983.73
831,20568,20007.81
832,20596,20031.89
833,20624,20055.96
834,20648,20080.04
835,20676,20104.12
836,20700,20128.19
837,20724,20152.27
838,20748,20176.35
839,20772,20200.42
840,20796,20224.50
841,20816,20248.58
842,20836,20272.65
843,20852,20296.73
844,20876,20320.81
845,20876,20344.88
846,20844,20368.96
847,20760,20393.04
848,20652,20417.12
849,20548,20441.19
850,20460,20465.27
851,20408,20489.35
852,20376,20513.42
853,20372,20537.50
854,20380,20561.58
855,20392,20585.65
856,20408,20609.73
857,20432,20633.81
858,20460,20657.88
859,20480,20681.96
860,20496,20706.04
861,20504,20730.11
862,20508,20754.19
863,20504,20778.27
864,20504,20802.34
865,20508,20826.42
866,20512,20850.50
867,20524,20874.57
868,20540,20898.65
869,20560,20922.73
870,20584,20946.80
871,20608,20970.88
872,20632,20994.96
873,20656,21019.03
874,20680,21043.11
875,20700,21067.19
876,20724,21091.27
877,20744,21115.34
878,20764,21139.42
879,20784,21163.50
880,20804,21187.57
881,20820,21211.65
882,20828,21235.73
883,20792,21259.80
884,20716,21283.88
885,20616,21307.96
886,20516,21332.03
887,20440,21356.11
888,20392,21380.19
889,20376,21404.26
890,20376,21428.34
891,20388,21452.42
892,20412,21476.49
893,20440,21500.57
894,20472,21524.65
895,20500,21548.72
896,20520,21572.80
897,20536,21596.88
898,20544,21620.95
899,20540,21645.03
900,20540,21669.11
901,20536,21693.18
902,20536,21717.26
903,20548,21741.34
904,20560,21765.42
905,20576,21789.49
906,20600,21813.57
907,20620,21837.65
908,20640,21861.72
909,20668,21885.80
910,20688,21909.88
911,20708,21933.95
912,20728,21958.03
913,20748,21982.11
914,20772,22006.18
915,20784,22030.26
916,20780,22054.34
917,20728,22078.41
918,20644,22102.49
919,20540,22126.57
920,20448,22150.64
921,20380,22174.72
922,20336,22198.80
923,20320,22222.87
924,20320,22246.95
925,20328,22271.03
926,20352,22295.10
927,20384,22319.18
928,20416,22343.26
929,20448,22367.33
930,20472,22391.41
931,20484,22415.49
932,20488,22439.57
933,20492,22463.64
934,20488,22487.72
935,20488,22511.80
936,20488,22535.87
937,20504,22559.95
938,20520,22584.03
939,20536,22608.10
940,20556,22632.18
941,20584,22656.26
942,20608,22680.33
943,20628,22704.41
944,20652,22728.49
945,20676,22752.56
946,20696,22776.64
947,20716,22800.72
948,20732,22824.79
949,20732,22848.87
950,20680,22872.95
951,20588,22897.02
952,20484,22921.10
953,20380,22945.18
954,20304,22969.25
955,20260,22993.33
956,20244,23017.41
957,20240,23041.48
958,20256,23065.56
959,20268,23089.64
960,20292,23113.72
961,20316,23137.79
962,20348,23161.87
963,20364,23185.95
964,20380,23210.02
965,20384,23234.10
966,20384,23258.18
967,20384,23282.25
968,20388,23306.33
969,20392,23330.41
970,20400,23354.48
971,20412,23378.56
972,20436,23402.64
973,20452,23426.71
974,20476,23450.79
975,20504,23474.87
976,20536,23498.94
977,20560,23523.02
978,20584,23547.10
979,20612,23571.17
980,20640,23595.25
981,20660,23619.33
982,20656,23643.40
983,20596,23667.48
984,20500,23691.56
985,20388,23715.63
986,20288,23739.71
987,20212,23763.79
988,20176,23787.87
989,20164,23811.94
990,20172,23836.02
991,20188,23860.10
992,20212,23884.17
993,20240,23908.25
994,20272,23932.33
995,20304,23956.40
996,20324,23980.48
997,20344,24004.56
998,20356,24028.63
999,20360,24052.71
1000,20372,24076.79
1001,20376,24100.86
1002,20384,24124.94
1003,20400,24149.02
1004,20416,24173.09
1005,20432,24197.17
1006,20460,24221.25
1007,20480,24245.32
1008,20508,24269.40
1009,20532,24293.48
1010,20560,24317.55
1011,20584,24341.63
1012,20608,24365.71
1013,20636,24389.78
1014,20660,24413.86
1015,20660,24437.94
1016,20608,24462.02
1017,20508,24486.09
1018,20396,24510.17
1019,20292,24534.25
1020,20216,24558.32
1021,20168,24582.40
1022,20152,24606.48
1023,20160,24630.55
1024,20180,24654.63
1025,20204,24678.71
1026,20236,24702.78
1027,20280,24726.86
1028,20312,24750.94
1029,20348,24775.01
1030,20376,24799.09
1031,20396,24823.17
1032,20408,24847.24
1033,20416,24871.32
1034,20420,24895.40
1035,20428,24919.47
1036,20440,24943.55
1037,20452,24967.63
1038,20468,24991.70
1039,20488,25015.78
1040,20512,25039.86
1041,20532,25063.93
1042,20560,25088.01
1043,20584,25112.09
1044,20608,25136.17
1045,20632,25160.24
1046,20656,25184.32
1047,20676,25208.40
1048,20668,25232.47
1049,20604,25256.55
1050,20504,25280.63
1051,20396,25304.70
1052,20304,25328.78
1053,20240,25352.86
1054,20208,25376.93
1055,20200,25401.01
1056,20208,25425.09
1057,20228,25449.16
1058,20252,25473.24
1059,20288,25497.32
1060,20320,25521.39
1061,20352,25545.47
1062,20372,25569.55
1063,20384,25593.62
1064,20392,25617.70
1065,20392,25641.78
1066,20392,25665.85
1067,20388,25689.93
1068,20396,25714.01
1069,20400,25738.08
1070,20412,25762.16
1071,20432,25786.24
1072,20452,25810.32
1073,20476,25834.39
1074,20500,25858.47
1075,20528,25882.55
1076,20552,25906.62
1077,20576,25930.70
1078,20576,25954.78
1079,20532,25978.85
1080,20448,26002.93
1081,20348,26027.01
1082,20256,26051.08
1083,20188,26075.16
1084,20156,26099.24
1085,20148,26123.31
1086,20160,26147.39
1087,20176,26171.47
1088,20208,26195.54
1089,20240,26219.62
1090,20276,26243.70
1091,20304,26267.77
1092,20324,26291.85
1093,20336,26315.93
1094,20344,26340.00
1095,20344,26364.08
1096,20340,26388.16
1097,20344,26412.23
1098,20352,26436.31
1099,20356,26460.39
1100,20372,26484.47
1101,20392,26508.54
1102,20412,26532.62
1103,20428,26556.70
1104,20448,26580.77
1105,20472,26604.85
1106,20492,26628.93
1107,20504,26653.00
1108,20484,26677.08
1109,20412,26701.16
1110,20308,26725.23
1111,20208,26749.31
1112,20128,26773.39
1113,20072,26797.46
1114,20056,26821.54
1115,20060,26845.62
1116,20072,26869.69
1117,20096,26893.77
1118,20128,26917.85
1119,20164,26941.92
1120,20196,26966.00
1121,20228,26990.08
1122,20244,27014.15
1123,20248,27038.23
1124,20256,27062.31
1125,20252,27086.38
1126,20260,27110.46
1127,20268,27134.54
1128,20280,27158.62
1129,20296,27182.69
1130,20312,27206.77
1131,20336,27230.85
1132,20360,27254.92
1133,20380,27279.00
1134,20404,27303.08
1135,20424,27327.15
1136,20448,27351.23
1137,20448,27375.31
1138,20396,27399.38
1139,20308,27423.46
1140,20196,27447.54
1141,20100,27471.61
1142,20032,27495.69
1143,19992,27519.77
1144,19984,27543.84
1145,19984,27567.92
1146,19996,27592.00
1147,20016,27616.07
1148,20040,27640.15
1149,20072,27664.23
1150,20100,27688.30
1151,20120,27712.38
1152,20140,27736.46
1153,20156,27760.54
1154,20160,27784.61
1155,20160,27808.69
1156,20168,27832.77
1157,20176,27856.84
1158,20192,27880.92
1159,20212,27905.00
1160,20232,27929.07
1161,20252,27953.15
1162,20276,27977.23
1163,20300,28001.30
1164,20324,28025.38
1165,20352,28049.46
1166,20380,28073.53
1167,20408,28097.61
1168,20400,28121.69
1169,20344,28145.76
1170,20248,28169.84
1171,20144,28193.92
1172,20056,28217.99
1173,20000,28242.07
1174,19972,28266.15
1175,19968,28290.22
1176,19976,28314.30
1177,19996,28338.38
1178,20016,28362.45
1179,20048,28386.53
1180,20084,28410.61
1181,20112,28434.69
1182,20140,28458.76
1183,20156,28482.84
1184,20164,28506.92
1185,20172,28530.99
1186,20176,28555.07
1187,20184,28579.15
1188,20196,28603.22
1189,20216,28627.30
1190,20236,28651.38
1191,20260,28675.45
1192,20288,28699.53
1193,20320,28723.61
1194,20344,28747.68
1195,20368,28771.76
1196,20392,28795.84
1197,20416,28819.91
1198,20436,28843.99
1199,20428,28868.07
1200,20364,28892.14
1201,20260,28916.22
1202,20152,28940.30
1203,20060,28964.37
1204,20004,28988.45
1205,19976,29012.53
1206,19972,29036.60
1207,19984,29060.68
1208,20008,29084.76
1209,20040,29108.84
1210,20076,29132.91
1211,20116,29156.99
1212,20144,29181.07
1213,20176,29205.14
1214,20192,29229.22
1215,20200,29253.30
1216,20204,29277.37
1217,20204,29301.45
1218,20208,29325.53
1219,20220,29349.60
1220,20232,29373.68
1221,20248,29397.76
1222,20268,29421.83
1223,20292,29445.91
1224,20316,29469.99
1225,20340,29494.06
1226,20368,29518.14
1227,20396,29542.22
1228,20412,29566.29
1229,20404,29590.37
1230,20336,29614.45
1231,20236,29638.52
1232,20136,29662.60
1233,20060,29686.68
1234,20012,29710.75
1235,19988,29734.83
1236,19988,29758.91
1237,20004,29782.99
1238,20024,29807.06
1239,20056,29831.14
1240,20088,29855.22
1241,20124,29879.29
1242,20148,29903.37
1243,20164,29927.45
1244,20172,29951.52
1245,20172,29975.60
1246,20168,29999.68
1247,20172,30023.75
1248,20184,30047.83
1249,20192,30071.91
1250,20208,30095.98
1251,20228,30120.06
1252,20248,30144.14
1253,20268,30168.21
1254,20292,30192.29
1255,20312,30216.37
1256,20332,30240.44
1257,20356,30264.52
1258,20384,30288.60
1259,20400,30312.67
1260,20364,30336.75
1261,20284,30360.83
1262,20180,30384.90
1263,20080,30408.98
1264,20008,30433.06
1265,19964,30457.14
1266,19948,30481.21
1267,19952,30505.29
1268,19964,30529.37
1269,19988,30553.44
1270,20020,30577.52
1271,20052,30601.60
1272,20084,30625.67
1273,20112,30649.75
1274,20136,30673.83
1275,20148,30697.90
1276,20156,30721.98
1277,20164,30746.06
1278,20168,30770.13
1279,20168,30794.21
1280,20184,30818.29
1281,20200,30842.36
1282,20220,30866.44
1283,20240,30890.52
1284,20264,30914.59
1285,20292,30938.67
1286,20312,30962.75
1287,20332,30986.82
1288,20364,31010.90
1289,20388,31034.98
1290,20408,31059.05
1291,20384,31083.13
1292,20308,31107.21
1293,20196,31131.29
1294,20080,31155.36
1295,19988,31179.44
1296,19932,31203.52
1297,19904,31227.59
1298,19904,31251.67
1299,19916,31275.75
1300,19928,31299.82
1301,19956,31323.90
1302,19992,31347.98
1303,20024,31372.05
1304,20056,31396.13
1305,20084,31420.21
1306,20104,31444.28
1307,20120,31468.36
1308,20128,31492.44
1309,20136,31516.51
1310,20144,31540.59
1311,20160,31564.67
1312,20176,31588.74
1313,20196,31612.82
1314,20216,31636.90
1315,20240,31660.97
1316,20264,31685.05
1317,20288,31709.13
1318,20312,31733.20
1319,20340,31757.28
1320,20368,31781.36
1321,20392,31805.44
1322,20396,31829.51
1323,20348,31853.59
1324,20256,31877.67
1325,20144,31901.74
1326,20044,31925.82
1327,19984,31949.90
1328,19948,31973.97
1329,19940,31998.05
1330,19944,32022.13
1331,19964,32046.20
1332,19996,32070.28
1333,20028,32094.36
1334,20064,32118.43
1335,20100,32142.51
1336,20124,32166.59
1337,20144,32190.66
1338,20148,32214.74
1339,20152,32238.82
1340,20156,32262.89
1341,20156,32286.97
1342,20164,32311.05
1343,20168,32335.12
1344,20184,32359.20
1345,20200,32383.28
1346,20224,32407.35
1347,20248,32431.43
1348,20272,32455.51
1349,20296,32479.59
1350,20320,32503.66
1351,20340,32527.74
1352,20348,32551.82
1353,20316,32575.89
1354,20232,32599.97
1355,20136,32624.05
1356,20048,32648.12
1357,19980,32672.20
1358,19944,32696.28
1359,19936,32720.35
1360,19948,32744.43
1361,19960,32768.51
1362,19980,32792.58
1363,20016,32816.66
1364,20048,32840.74
1365,20084,32864.81
1366,20104,32888.89
1367,20124,32912.97
1368,20128,32937.04
1369,20136,32961.12
1370,20140,32985.20
1371,20144,33009.27
1372,20152,33033.35
1373,20168,33057.43
1374,20192,33081.50
1375,20212,33105.58
1376,20236,33129.66
1377,20260,33153.74
1378,20284,33177.81
1379,20308,33201.89
1380,20336,33225.97
1381,20360,33250.04
1382,20372,33274.12
1383,20352,33298.20
1384,20280,33322.27
1385,20184,33346.35
1386,20080,33370.43
1387,20004,33394.50
1388,19956,33418.58
1389,19944,33442.66
1390,19944,33466.73
1391,19960,33490.81
1392,19980,33514.89
1393,20008,33538.96
1394,20044,33563.04
1395,20076,33587.12
1396,20108,33611.19
1397,20132,33635.27
1398,20144,33659.35
1399,20156,33683.42
1400,20156,33707.50
1401,20164,33731.58
1402,20176,33755.65
1403,20184,33779.73
1404,20204,33803.81
1405,20224,33827.89
1406,20252,33851.96
1407,20276,33876.04
1408,20300,33900.12
1409,20324,33924.19
1410,20348,33948.27
1411,20372,33972.35
1412,20380,33996.42
1413,20340,34020.50
1414,20264,34044.58
1415,20168,34068.65
1416,20084,34092.73
1417,20024,34116.81
1418,20000,34140.88
1419,19992,34164.96
1420,20004,34189.04
1421,20024,34213.11
1422,20056,34237.19
1423,20088,34261.27
1424,20128,34285.34
1425,20164,34309.42
1426,20188,34333.50
1427,20208,34357.57
1428,20216,34381.65
1429,20228,34405.73
1430,20236,34429.80
1431,20248,34453.88
1432,20260,34477.96
1433,20276,34502.04
1434,20292,34526.11
1435,20316,34550.19
1436,20340,34574.27
1437,20364,34598.34
1438,20388,34622.42
1439,20416,34646.50
1440,20440,34670.57
1441,20468,34694.65
1442,20500,34718.73
1443,20504,34742.80
1444,20468,34766.88
1445,20384,34790.96
1446,20276,34815.03
1447,20176,34839.11
1448,20108,34863.19
1449,20068,34887.26
1450,20060,34911.34
1451,20068,34935.42
1452,20088,34959.49
1453,20112,34983.57
1454,20148,35007.65
1455,20184,35031.72
1456,20216,35055.80
1457,20240,35079.88
1458,20264,35103.95
1459,20268,35128.03
1460,20276,35152.11
1461,20280,35176.19
1462,20288,35200.26
1463,20288,35224.34
1464,20300,35248.42
1465,20316,35272.49
1466,20332,35296.57
1467,20352,35320.65
1468,20372,35344.72
1469,20400,35368.80
1470,20424,35392.88
1471,20448,35416.95
1472,20472,35441.03
1473,20472,35465.11
1474,20428,35489.18
1475,20352,35513.26
1476,20252,35537.34
1477,20164,35561.41
1478,20096,35585.49
1479,20064,35609.57
1480,20064,35633.64
1481,20072,35657.72
1482,20092,35681.80
1483,20124,35705.87
1484,20156,35729.95
1485,20192,35754.03
1486,20220,35778.10
1487,20244,35802.18
1488,20260,35826.26
1489,20264,35850.34
1490,20264,35874.41
1491,20264,35898.49
1492,20268,35922.57
1493,20276,35946.64
1494,20288,35970.72
1495,20296,35994.80
1496,20308,36018.87
1497,20328,36042.95
1498,20348,36067.03
1499,20372,36091.10
1500,20396,36115.18
1501,20424,36139.26
1502,20436,36163.33
1503,20412,36187.41
1504,20336,36211.49
1505,20244,36235.56
1506,20144,36259.64
1507,20072,36283.72
1508,20040,36307.79
1509,20028,36331.87
1510,20036,36355.95
1511,20060,36380.02
1512,20088,36404.10
1513,20124,36428.18
1514,20168,36452.26
1515,20200,36476.33
1516,20232,36500.41
1517,20244,36524.49
1518,20256,36548.56
1519,20256,36572.64
1520,20256,36596.72
1521,20260,36620.79
1522,20268,36644.87
1523,20280,36668.95
1524,20300,36693.02
1525,20324,36717.10
1526,20348,36741.18
1527,20372,36765.25
1528,20400,36789.33
1529,20424,36813.41
1530,20456,36837.48
1531,20484,36861.56
1532,20488,36885.64
1533,20452,36909.71
1534,20368,36933.79
1535,20256,36957.87
1536,20160,36981.94
1537,20088,37006.02
1538,20060,37030.10
1539,20060,37054.17
1540,20072,37078.25
1541,20100,37102.33
1542,20128,37126.41
1543,20168,37150.48
1544,20208,37174.56
1545,20240,37198.64
1546,20272,37222.71
1547,20288,37246.79
1548,20296,37270.87
1549,20300,37294.94
1550,20308,37319.02
1551,20312,37343.10
1552,20328,37367.17
1553,20340,37391.25
1554,20356,37415.33
1555,20380,37439.40
1556,20404,37463.48
1557,20428,37487.56
1558,20456,37511.63
1559,20480,37535.71
1560,20512,37559.79
1561,20536,37583.86
1562,20540,37607.94
1563,20492,37632.02
1564,20400,37656.09
1565,20288,37680.17
1566,20180,37704.25
1567,20104,37728.32
1568,20068,37752.40
1569,20060,37776.48
1570,20072,37800.56
1571,20096,37824.63
1572,20128,37848.71
1573,20168,37872.79
1574,20208,37896.86
1575,20244,37920.94
1576,20268,37945.02
1577,20292,37969.09
1578,20304,37993.17
1579,20308,38017.25
1580,20312,38041.32
1581,20316,38065.40
1582,20320,38089.48
1583,20336,38113.55
1584,20352,38137.63
1585,20372,38161.71
1586,20396,38185.78
1587,20420,38209.86
1588,20444,38233.94
1589,20464,38258.01
1590,20488,38282.09
1591,20516,38306.17
1592,20520,38330.24
1593,20476,38354.32
1594,20388,38378.40
1595,20280,38402.47
1596,20172,38426.55
1597,20096,38450.63
1598,20056,38474.71
1599,20044,38498.78
1600,20056,38522.86
1601,20080,38546.94
1602,20108,38571.01
1603,20152,38595.09
1604,20188,38619.17
1605,20228,38643.24
1606,20256,38667.32
1607,20272,38691.40
1608,20276,38715.47
1609,20280,38739.55
1610,20284,38763.63
1611,20284,38787.70
1612,20292,38811.78
1613,20304,38835.86
1614,20316,38859.93
1615,20336,38884.01
1616,20352,38908.09
1617,20380,38932.16
1618,20404,38956.24
1619,20432,38980.32
1620,20456,39004.39
1621,20460,39028.47
1622,20412,39052.55
1623,20328,39076.62
1624,20220,39100.70
1625,20128,39124.78
1626,20056,39148.86
1627,20020,39172.93
1628,20016,39197.01
1629,20024,39221.09
1630,20048,39245.16
1631,20088,39269.24
1632,20132,39293.32
1633,20168,39317.39
1634,20200,39341.47
1635,20228,39365.55
1636,20236,39389.62
1637,20232,39413.70
1638,20232,39437.78
1639,20228,39461.85
1640,20224,39485.93
1641,20236,39510.01
1642,20244,39534.08
1643,20260,39558.16
1644,20280,39582.24
1645,20300,39606.31
1646,20324,39630.39
1647,20352,39654.47
1648,20376,39678.54
1649,20400,39702.62
1650,20404,39726.70
1651,20356,39750.77
1652,20252,39774.85
1653,20140,39798.93
1654,20032,39823.01
1655,19964,39847.08
1656,19928,39871.16
1657,19924,39895.24
1658,19932,39919.31
1659,19956,39943.39
1660,19988,39967.47
1661,20024,39991.54
1662,20060,40015.62
1663,20096,40039.70
1664,20120,40063.77
1665,20132,40087.85
1666,20144,40111.93
1667,20148,40136.00
1668,20152,40160.08
1669,20160,40184.16
1670,20172,40208.23
1671,20188,40232.31
1672,20208,40256.39
1673,20228,40280.46
1674,20252,40304.54
1675,20280,40328.62
1676,20304,40352.69
1677,20324,40376.77
1678,20352,40400.85
1679,20364,40424.92
1680,20328,40449.00
1681,20244,40473.08
1682,20128,40497.16
1683,20016,40521.23
1684,19940,40545.31
1685,19892,40569.39
1686,19880,40593.46
1687,19888,40617.54
1688,19904,40641.62
1689,19932,40665.69
1690,19972,40689.77
1691,20012,40713.85
1692,20052,40737.92
1693,20080,40762.00
1694,20096,40786.08
1695,20108,40810.15
1696,20116,40834.23
1697,20124,40858.31
1698,20128,40882.38
1699,20144,40906.46
1700,20152,40930.54
1701,20172,40954.61
1702,20192,40978.69
1703,20212,41002.77
1704,20236,41026.84
1705,20264,41050.92
1706,20288,41075.00
1707,20316,41099.07
1708,20340,41123.15
1709,20324,41147.23
1710,20260,41171.31
1711,20148,41195.38
1712,20032,41219.46
1713,19932,41243.54
1714,19872,41267.61
1715,19844,41291.69
1716,19844,41315.77
1717,19864,41339.84
1718,19896,41363.92
1719,19928,41388.00
1720,19964,41412.07
1721,19992,41436.15
1722,20008,41460.23
1723,20016,41484.30
1724,20012,41508.38
1725,20008,41532.46
1726,19996,41556.53
1727,19988,41580.61
1728,19984,41604.69
1729,19984,41628.76
1730,19996,41652.84
1731,20004,41676.92
1732,20020,41700.99
1733,20052,41725.07
1734,20084,41749.15
1735,20120,41773.22
1736,20156,41797.30
1737,20172,41821.38
1738,20148,41845.46
1739,20080,41869.53
1740,19984,41893.61
1741,19888,41917.69
1742,19820,41941.76
1743,19780,41965.84
1744,19772,41989.92
1745,19780,42013.99
1746,19808,42038.07
1747,19844,42062.15
1748,19888,42086.22
1749,19932,42110.30
1750,19972,42134.38
1751,19992,42158.45
1752,20012,42182.53
1753,20016,42206.61
1754,20012,42230.68
1755,20016,42254.76
1756,20020,42278.84
1757,20028,42302.91
1758,20040,42326.99
1759,20060,42351.07
1760,20080,42375.14
1761,20104,42399.22
1762,20128,42423.30
1763,20148,42447.37
1764,20176,42471.45
1765,20204,42495.53
1766,20216,42519.61
1767,20188,42543.68
1768,20108,42567.76
1769,20000,42591.84
1770,19888,42615.91
1771,19800,42639.99
1772,19756,42664.07
1773,19740,42688.14
1774,19752,42712.22
1775,19772,42736.30
1776,19804,42760.37
1777,19844,42784.45
1778,19884,42808.53
1779,19924,42832.60
1780,19952,42856.68
1781,19972,42880.76
1782,19984,42904.83
1783,19984,42928.91
1784,19988,42952.99
1785,19984,42977.06
1786,20000,43001.14
1787,20008,43025.22
1788,20024,43049.29
1789,20048,43073.37
1790,20068,43097.45
1791,20096,43121.52
1792,20124,43145.60
1793,20152,43169.68
1794,20184,43193.76
1795,20212,43217.83
1796,20228,43241.91
1797,20208,43265.99
1798,20128,43290.06
1799,20016,43314.14
1800,19896,43338.22
1801,19808,43362.29
1802,19756,43386.37
1803,19740,43410.45
1804,19748,43434.52
1805,19772,43458.60
1806,19808,43482.68
1807,19848,43506.75
1808,19892,43530.83
1809,19932,43554.91
1810,19968,43578.98
1811,19992,43603.06
1812,20004,43627.14
1813,20016,43651.21
1814,20024,43675.29
1815,20028,43699.37
1816,20040,43723.44
1817,20056,43747.52
1818,20072,43771.60
1819,20092,43795.67
1820,20116,43819.75
1821,20140,43843.83
1822,20176,43867.91
1823,20196,43891.98
1824,20224,43916.06
1825,20248,43940.14
1826,20272,43964.21
1827,20300,43988.29
1828,20324,44012.37
1829,20316,44036.44
1830,20244,44060.52
1831,20124,44084.60
1832,19996,44108.67
1833,19884,44132.75
1834,19820,44156.83
1835,19792,44180.90
1836,19796,44204.98
1837,19808,44229.06
1838,19840,44253.13
1839,19880,44277.21
1840,19928,44301.29
1841,19972,44325.36
1842,20008,44349.44
1843,20032,44373.52
1844,20048,44397.59
1845,20056,44421.67
1846,20060,44445.75
1847,20060,44469.82
1848,20068,44493.90
1849,20076,44517.98
1850,20092,44542.06
1851,20112,44566.13
1852,20140,44590.21
1853,20168,44614.29
1854,20192,44638.36
1855,20220,44662.44
1856,20248,44686.52
1857,20276,44710.59
1858,20304,44734.67
1859,20328,44758.75
1860,20352,44782.82
1861,20336,44806.90
1862,20256,44830.98
1863,20144,44855.05
1864,20024,44879.13
1865,19932,44903.21
1866,19876,44927.28
1867,19852,44951.36
1868,19860,44975.44
1869,19880,44999.51
1870,19916,45023.59
1871,19956,45047.67
1872,20000,45071.74
1873,20040,45095.82
1874,20072,45119.90
1875,20092,45143.98
1876,20100,45168.05
1877,20104,45192.13
1878,20104,45216.21
1879,20100,45240.28
1880,20108,45264.36
1881,20120,45288.44
1882,20128,45312.51
1883,20152,45336.59
1884,20176,45360.67
1885,20200,45384.74
1886,20224,45408.82
1887,20252,45432.90
1888,20276,45456.97
1889,20300,45481.05
1890,20324,45505.13
1891,20344,45529.20
1892,20360,45553.28
1893,20332,45577.36
1894,20244,45601.43
1895,20120,45625.51
1896,19996,45649.59
1897,19900,45673.66
1898,19848,45697.74
1899,19828,45721.82
1900,19836,45745.89
1901,19860,45769.97
1902,19896,45794.05
1903,19936,45818.13
1904,19984,45842.20
1905,20024,45866.28
1906,20060,45890.36
1907,20080,45914.43
1908,20092,45938.51
1909,20096,45962.59
1910,20096,45986.66
1911,20100,46010.74
1912,20108,46034.82
1913,20124,46058.89
1914,20136,46082.97
1915,20160,46107.05
1916,20184,46131.12
1917,20212,46155.20
1918,20236,46179.28
1919,20264,46203.35
1920,20288,46227.43
1921,20312,46251.51
1922,20340,46275.58
1923,20368,46299.66
1924,20380,46323.74
1925,20344,46347.81
1926,20248,46371.89
1927,20116,46395.97
1928,19992,46420.04
1929,19904,46444.12
1930,19860,46468.20
1931,19840,46492.28
1932,19852,46516.35
1933,19880,46540.43
1934,19912,46564.51
1935,19964,46588.58
1936,20012,46612.66
1937,20052,46636.74
1938,20084,46660.81
1939,20108,46684.89
1940,20124,46708.97
1941,20132,46733.04
1942,20136,46757.12
1943,20136,46781.20
1944,20148,46805.27
1945,20160,46829.35
1946,20176,46853.43
1947,20200,46877.50
1948,20224,46901.58
1949,20252,46925.66
1950,20284,46949.73
1951,20312,46973.81
1952,20340,46997.89
1953,20372,47021.96
1954,20404,47046.04
1955,20436,47070.12
1956,20448,47094.19
1957,20412,47118.27
1958,20312,47142.35
1959,20184,47166.43
1960,20060,47190.50
1961,19972,47214.58
1962,19928,47238.66
1963,19920,47262.73
1964,19932,47286.81
1965,19960,47310.89
1966,19996,47334.96
1967,20044,47359.04
1968,20088,47383.12
1969,20128,47407.19
1970,20156,47431.27
1971,20176,47455.35
1972,20184,47479.42
1973,20180,47503.50
1974,20176,47527.58
1975,20180,47551.65
1976,20180,47575.73
1977,20188,47599.81
1978,20208,47623.88
1979,20228,47647.96
1980,20248,47672.04
1981,20272,47696.11
1982,20296,47720.19
1983,20324,47744.27
1984,20348,47768.34
1985,20376,47792.42
1986,20396,47816.50
1987,20376,47840.58
1988,20308,47864.65
1989,20196,47888.73
1990,20084,47912.81
1991,19996,47936.88
1992,19944,47960.96
1993,19924,47985.04
1994,19936,48009.11
1995,19960,48033.19
1996,19992,48057.27
1997,20040,48081.34
1998,20092,48105.42
1999,20136,48129.50
2000,20168,48153.57
2001,20188,48177.65
2002,20196,48201.73
2003,20200,48225.80
2004,20196,48249.88
2005,20200,48273.96
2006,20204,48298.03
2007,20208,48322.11
2008,20228,48346.19
2009,20240,48370.26
2010,20256,48394.34
2011,20276,48418.42
2012,20300,48442.49
2013,20328,48466.57
2014,20352,48490.65
2015,20376,48514.73
2016,20396,48538.80
2017,20372,48562.88
2018,20288,48586.96
2019,20172,48611.03
2020,20056,48635.11
2021,19964,48659.19
2022,19908,48683.26
2023,19888,48707.34
2024,19896,48731.42
2025,19916,48755.49
2026,19948,48779.57
2027,19992,48803.65
2028,20036,48827.72
2029,20072,48851.80
2030,20104,48875.88
2031,20120,48899.95
2032,20128,48924.03
2033,20124,48948.11
2034,20120,48972.18
2035,20116,48996.26
2036,20120,49020.34
2037,20132,49044.41
2038,20144,49068.49
2039,20164,49092.57
2040,20188,49116.64
2041,20208,49140.72
2042,20232,49164.80
2043,20256,49188.88
2044,20284,49212.95
2045,20308,49237.03
2046,20324,49261.11
2047,20280,49285.18
2048,20188,49309.26
2049,20072,49333.34
2050,19956,49357.41
2051,19884,49381.49
2052,19844,49405.57
2053,19836,49429.64
2054,19852,49453.72
2055,19876,49477.80
2056,19916,49501.87
2057,19960,49525.95
2058,20008,49550.03
2059,20044,49574.10
2060,20080,49598.18
2061,20096,49622.26
2062,20104,49646.33
2063,20108,49670.41
2064,20108,49694.49
2065,20116,49718.56
2066,20124,49742.64
2067,20136,49766.72
2068,20152,49790.79
2069,20172,49814.87
2070,20196,49838.95
2071,20216,49863.03
2072,20236,49887.10
2073,20264,49911.18
2074,20292,49935.26
2075,20316,49959.33
2076,20332,49983.41
2077,20300,50007.49
2078,20208,50031.56
2079,20080,50055.64
2080,19964,50079.72
2081,19876,50103.79
2082,19824,50127.87
2083,19816,50151.95
2084,19828,50176.02
2085,19856,50200.10
2086,19892,50224.18
2087,19936,50248.25
2088,19984,50272.33
2089,20020,50296.41
2090,20052,50320.48
2091,20068,50344.56
2092,20080,50368.64
2093,20084,50392.71
2094,20084,50416.79
2095,20088,50440.87
2096,20092,50464.94
2097,20108,50489.02
2098,20128,50513.10
2099,20152,50537.18
2100,20172,50561.25
2101,20196,50585.33
2102,20220,50609.41
2103,20244,50633.48
2104,20272,50657.56
2105,20296,50681.64
2106,20324,50705.71
2107,20312,50729.79
2108,20240,50753.87
2109,20128,50777.94
2110,20004,50802.02
2111,19908,50826.10
2112,19852,50850.17
2113,19828,50874.25
2114,19832,50898.33
2115,19852,50922.40
2116,19884,50946.48
2117,19924,50970.56
2118,19968,50994.63
2119,20008,51018.71
2120,20044,51042.79
2121,20064,51066.86
2122,20080,51090.94
2123,20080,51115.02
2124,20080,51139.09
2125,20084,51163.17
2126,20088,51187.25
2127,20100,51211.33
2128,20116,51235.40
2129,20140,51259.48
2130,20160,51283.56
2131,20188,51307.63
2132,20216,51331.71
2133,20240,51355.79
2134,20272,51379.86
2135,20300,51403.94
2136,20328,51428.02
2137,20340,51452.09
2138,20296,51476.17
2139,20200,51500.25
2140,20088,51524.32
2141,19984,51548.40
2142,19916,51572.48
2143,19888,51596.55
2144,19884,51620.63
2145,19912,51644.71
2146,19940,51668.78
2147,19984,51692.86
2148,20036,51716.94
2149,20084,51741.01
2150,20120,51765.09
2151,20144,51789.17
2152,20156,51813.24
2153,20164,51837.32
2154,20160,51861.40
2155,20164,51885.48
2156,20168,51909.55
2157,20180,51933.63
2158,20192,51957.71
2159,20208,51981.78
2160,20228,52005.86
2161,20252,52029.94
2162,20268,52054.01
2163,20292,52078.09
2164,20316,52102.17
2165,20340,52126.24
2166,20356,52150.32
2167,20340,52174.40
2168,20268,52198.47
2169,20168,52222.55
2170,20064,52246.63
2171,19988,52270.70
2172,19944,52294.78
2173,19928,52318.86
2174,19940,52342.93
2175,19968,52367.01
2176,20008,52391.09
2177,20056,52415.16
2178,20104,52439.24
2179,20144,52463.32
2180,20176,52487.39
2181,20184,52511.47
2182,20188,52535.55
2183,20188,52559.63
2184,20180,52583.70
2185,20180,52607.78
2186,20184,52631.86
2187,20196,52655.93
2188,20208,52680.01
2189,20228,52704.09
2190,20248,52728.16
2191,20264,52752.24
2192,20284,52776.32
2193,20308,52800.39
2194,20328,52824.47
2195,20344,52848.55
2196,20320,52872.62
2197,20244,52896.70
2198,20136,52920.78
2199,20028,52944.85
2200,19940,52968.93
2201,19896,52993.01
2202,19880,53017.08
2203,19884,53041.16
2204,19912,53065.24
2205,19948,53089.31
2206,19988,53113.39
2207,20032,53137.47
2208,20068,53161.54
2209,20092,53185.62
2210,20104,53209.70
2211,20096,53233.78
2212,20092,53257.85
2213,20092,53281.93
2214,20088,53306.01
2215,20096,53330.08
2216,20108,53354.16
2217,20120,53378.24
2218,20140,53402.31
2219,20160,53426.39
2220,20180,53450.47
2221,20200,53474.54
2222,20224,53498.62
2223,20244,53522.70
2224,20244,53546.77
2225,20188,53570.85
2226,20088,53594.93
2227,19980,53619.00
2228,19880,53643.08
2229,19824,53667.16
2230,19796,53691.23
2231,19800,53715.31
2232,19820,53739.39
2233,19856,53763.46
2234,19896,53787.54
2235,19944,53811.62
2236,19984,53835.69
2237,20020,53859.77
2238,20040,53883.85
2239,20044,53907.93
2240,20044,53932.00
2241,20040,53956.08
2242,20040,53980.16
2243,20044,54004.23
2244,20052,54028.31
2245,20068,54052.39
2246,20088,54076.46
2247,20112,54100.54
2248,20132,54124.62
2249,20160,54148.69
2250,20180,54172.77
2251,20208,54196.85
2252,20224,54220.92
2253,20204,54245.00
2254,20124,54269.08
2255,20008,54293.15
2256,19896,54317.23
2257,19812,54341.31
2258,19768,54365.38
2259,19748,54389.46
2260,19760,54413.54
2261,19784,54437.61
2262,19820,54461.69
2263,19864,54485.77
2264,19912,54509.85
2265,19948,54533.92
2266,19976,54558.00
2267,19988,54582.08
2268,19996,54606.15
2269,19992,54630.23
2270,19992,54654.31
2271,20000,54678.38
2272,20008,54702.46
2273,20020,54726.54
2274,20036,54750.61
2275,20060,54774.69
2276,20080,54798.77
2277,20104,54822.84
2278,20128,54846.92
2279,20152,54871.00
2280,20184,54895.07
2281,20204,54919.15
2282,20192,54943.23
2283,20124,54967.30
2284,20012,54991.38
2285,19900,55015.46
2286,19808,55039.53
2287,19756,55063.61
2288,19736,55087.69
2289,19740,55111.76
2290,19760,55135.84
2291,19796,55159.92
2292,19836,55184.00
2293,19880,55208.07
2294,19920,55232.15
2295,19952,55256.23
2296,19976,55280.30
2297,19980,55304.38
2298,19984,55328.46
2299,19992,55352.53
2300,19992,55376.61
2301,20000,55400.69
2302,20016,55424.76
2303,20028,55448.84
2304,20044,55472.92
2305,20064,55496.99
2306,20088,55521.07
2307,20108,55545.15
2308,20136,55569.22
2309,20160,55593.30
2310,20184,55617.38
2311,20204,55641.45
2312,20192,55665.53
2313,20124,55689.61
2314,20008,55713.68
2315,19892,55737.76
2316,19800,55761.84
2317,19744,55785.91
2318,19724,55809.99
2319,19732,55834.07
2320,19760,55858.15
2321,19800,55882.22
2322,19848,55906.30
2323,19892,55930.38
2324,19936,55954.45
2325,19968,55978.53
2326,19992,56002.61
2327,20000,56026.68
2328,20004,56050.76
2329,20004,56074.84
2330,20008,56098.91
2331,20020,56122.99
2332,20032,56147.07
2333,20048,56171.14
2334,20072,56195.22
2335,20096,56219.30
2336,20116,56243.37
2337,20144,56267.45
2338,20172,56291.53
2339,20192,56315.60
2340,20220,56339.68
2341,20244,56363.76
2342,20264,56387.83
2343,20232,56411.91
2344,20148,56435.99
2345,20036,56460.06
2346,19924,56484.14
2347,19848,56508.22
2348,19808,56532.30
2349,19804,56556.37
2350,19816,56580.45
2351,19852,56604.53
2352,19892,56628.60
2353,19936,56652.68
2354,19980,56676.76
2355,20016,56700.83
2356,20040,56724.91
2357,20048,56748.99
2358,20048,56773.06
2359,20048,56797.14
2360,20044,56821.22
2361,20044,56845.29
2362,20052,56869.37
2363,20064,56893.45
2364,20080,56917.52
2365,20096,56941.60
2366,20116,56965.68
2367,20140,56989.75
2368,20164,57013.83
2369,20188,57037.91
2370,20216,57061.98
2371,20232,57086.06
2372,20212,57110.14
2373,20136,57134.21
2374,20032,57158.29
2375,19924,57182.37
2376,19840,57206.45
2377,19792,57230.52
2378,19776,57254.60
2379,19788,57278.68
2380,19812,57302.75
2381,19848,57326.83
2382,19896,57350.91
2383,19948,57374.98
2384,19984,57399.06
2385,20008,57423.14
2386,20024,57447.21
2387,20020,57471.29
2388,20016,57495.37
2389,20008,57519.44
2390,20008,57543.52
2391,20008,57567.60
2392,20012,57591.67
2393,20024,57615.75
2394,20044,57639.83
2395,20060,57663.90
2396,20080,57687.98
2397,20100,57712.06
2398,20128,57736.13
2399,20152,57760.21
2400,20160,57784.29
2401,20128,57808.36
2402,20040,57832.44
2403,19924,57856.52
2404,19808,57880.60
2405,19732,57904.67
2406,19688,57928.75
2407,19684,57952.83
2408,19700,57976.90
2409,19728,58000.98
2410,19764,58025.06
2411,19812,58049.13
2412,19860,58073.21
2413,19888,58097.29
2414,19908,58121.36
2415,19924,58145.44
2416,19928,58169.52
2417,19928,58193.59
2418,19928,58217.67
2419,19932,58241.75
2420,19944,58265.82
2421,19956,58289.90
2422,19976,58313.98
2423,20000,58338.05
2424,20020,58362.13
2425,20044,58386.21
2426,20068,58410.28
2427,20096,58434.36
2428,20120,58458.44
2429,20116,58482.51
2430,20056,58506.59
2431,19948,58530.67
2432,19832,58554.75
2433,19732,58578.82
2434,19664,58602.90
2435,19640,58626.98
2436,19640,58651.05
2437,19656,58675.13
2438,19684,58699.21
2439,19716,58723.28
2440,19760,58747.36
2441,19796,58771.44
2442,19828,58795.51
2443,19856,58819.59
2444,19872,58843.67
2445,19880,58867.74
2446,19888,58891.82
2447,19892,58915.90
2448,19900,58939.97
2449,19916,58964.05
2450,19928,58988.13
2451,19952,59012.20
2452,19972,59036.28
2453,19992,59060.36
2454,20016,59084.43
2455,20044,59108.51
2456,20068,59132.59
2457,20084,59156.66
2458,20064,59180.74
2459,19984,59204.82
2460,19884,59228.90
2461,19776,59252.97
2462,19696,59277.05
2463,19648,59301.13
2464,19640,59325.20
2465,19648,59349.28
2466,19672,59373.36
2467,19704,59397.43
2468,19744,59421.51
2469,19788,59445.59
2470,19828,59469.66
2471,19860,59493.74
2472,19880,59517.82
2473,19892,59541.89
2474,19900,59565.97
2475,19904,59590.05
2476,19916,59614.12
2477,19932,59638.20
2478,19944,59662.28
2479,19964,59686.35
2480,19988,59710.43
2481,20012,59734.51
2482,20036,59758.58
2483,20064,59782.66
2484,20092,59806.74
2485,20124,59830.81
2486,20140,59854.89
2487,20120,59878.97
2488,20056,59903.05
2489,19964,59927.12
2490,19880,59951.20
2491,19812,59975.28
2492,19776,59999.35
2493,19772,60023.43
2494,19784,60047.51
2495,19808,60071.58
2496,19844,60095.66
2497,19884,60119.74
2498,19928,60143.81
2499,19960,60167.89
2500,19984,60191.97
2501,19996,60216.04
2502,20000,60240.12
2503,20004,60264.20
2504,20012,60288.27
2505,20012,60312.35
2506,20028,60336.43
2507,20044,60360.50
2508,20064,60384.58
2509,20084,60408.66
2510,20108,60432.73
2511,20132,60456.81
2512,20160,60480.89
2513,20188,60504.96
2514,20208,60529.04
2515,20220,60553.12
2516,20196,60577.20
2517,20120,60601.27
2518,20032,60625.35
2519,19952,60649.43
2520,19892,60673.50
2521,19864,60697.58
2522,19856,60721.66
2523,19868,60745.73
2524,19892,60769.81
2525,19924,60793.89
2526,19964,60817.96
2527,20000,60842.04
2528,20028,60866.12
2529,20052,60890.19
2530,20064,60914.27
2531,20076,60938.35
2532,20080,60962.42
2533,20084,60986.50
2534,20092,61010.58
2535,20104,61034.65
2536,20120,61058.73
2537,20136,61082.81
2538,20156,61106.88
2539,20176,61130.96
2540,20196,61155.04
2541,20224,61179.11
2542,20248,61203.19
2543,20276,61227.27
2544,20296,61251.35
2545,20292,61275.42
2546,20248,61299.50
2547,20168,61323.58
2548,20080,61347.65
2549,20008,61371.73
2550,19956,61395.81
2551,19936,61419.88
2552,19932,61443.96
2553,19940,61468.04
2554,19960,61492.11
2555,19984,61516.19
2556,20016,61540.27
2557,20044,61564.34
2558,20076,61588.42
2559,20092,61612.50
2560,20108,61636.57
2561,20116,61660.65
2562,20124,61684.73
2563,20136,61708.80
2564,20144,61732.88
2565,20156,61756.96
2566,20176,61781.03
2567,20196,61805.11
2568,20220,61829.19
2569,20248,61853.26
2570,20268,61877.34
2571,20292,61901.42
2572,20316,61925.50
2573,20344,61949.57
2574,20372,61973.65
2575,20396,61997.73
2576,20416,62021.80
2577,20412,62045.88
2578,20360,62069.96
2579,20280,62094.03
2580,20188,62118.11
2581,20116,62142.19
2582,20068,62166.26
2583,20044,62190.34
2584,20036,62214.42
2585,20048,62238.49
2586,20064,62262.57
2587,20092,62286.65
2588,20116,62310.72
2589,20148,62334.80
2590,20176,62358.88
2591,20196,62382.95
2592,20208,62407.03
2593,20224,62431.11
2594,20232,62455.18
2595,20236,62479.26
2596,20244,62503.34
2597,20256,62527.41
2598,20272,62551.49
2599,20288,62575.57
2600,20308,62599.65
2601,20332,62623.72
2602,20352,62647.80
2603,20372,62671.88
2604,20400,62695.95
2605,20420,62720.03
2606,20444,62744.11
2607,20468,62768.18
2608,20492,62792.26
2609,20512,62816.34
2610,20536,62840.41
2611,20556,62864.49
2612,20560,62888.57
2613,20528,62912.64
2614,20460,62936.72
2615,20364,62960.80
2616,20276,62984.87
2617,20208,63008.95
2618,20172,63033.03
2619,20156,63057.10
2620,20160,63081.18
2621,20176,63105.26
2622,20196,63129.33
2623,20224,63153.41
2624,20256,63177.49
2625,20284,63201.57
2626,20312,63225.64
2627,20324,63249.72
2628,20332,63273.80
2629,20340,63297.87
2630,20344,63321.95
2631,20344,63346.03
2632,20352,63370.10
2633,20360,63394.18
2634,20376,63418.26
2635,20392,63442.33
2636,20412,63466.41
2637,20436,63490.49
2638,20460,63514.56
2639,20480,63538.64
2640,20504,63562.72
2641,20528,63586.79
2642,20544,63610.87
2643,20564,63634.95
2644,20584,63659.02
2645,20604,63683.10
2646,20620,63707.18
2647,20624,63731.25
2648,20600,63755.33
2649,20536,63779.41
2650,20444,63803.48
2651,20360,63827.56
2652,20288,63851.64
2653,20248,63875.72
2654,20232,63899.79
2655,20232,63923.87
2656,20248,63947.95
2657,20268,63972.02
2658,20296,63996.10
2659,20328,64020.18
2660,20352,64044.25
2661,20372,64068.33
2662,20380,64092.41
2663,20388,64116.48
2664,20388,64140.56
2665,20384,64164.64
2666,20388,64188.71
2667,20392,64212.79
2668,20400,64236.87
2669,20412,64260.94
2670,20428,64285.02
2671,20448,64309.10
2672,20468,64333.17
2673,20488,64357.25
2674,20508,64381.33
2675,20528,64405.40
2676,20544,64429.48
2677,20564,64453.56
2678,20584,64477.63
2679,20604,64501.71
2680,20624,64525.79
2681,20636,64549.87
2682,20616,64573.94
2683,20560,64598.02
2684,20468,64622.10
2685,20372,64646.17
2686,20284,64670.25
2687,20228,64694.33
2688,20196,64718.40
2689,20192,64742.48
2690,20196,64766.56
2691,20216,64790.63
2692,20236,64814.71
2693,20268,64838.79
2694,20292,64862.86
2695,20312,64886.94
2696,20328,64911.02
2697,20336,64935.09
2698,20340,64959.17
2699,20332,64983.25
2700,20332,65007.32
2701,20340,65031.40
2702,20344,65055.48
2703,20356,65079.55
2704,20364,65103.63
2705,20384,65127.71
2706,20404,65151.78
2707,20420,65175.86
2708,20444,65199.94
2709,20464,65224.02
2710,20484,65248.09
2711,20508,65272.17
2712,20536,65296.25
2713,20560,65320.32
2714,20580,65344.40
2715,20588,65368.48
2716,20560,65392.55
2717,20484,65416.63
2718,20384,65440.71
2719,20280,65464.78
2720,20192,65488.86
2721,20140,65512.94
2722,20116,65537.01
2723,20116,65561.09
2724,20124,65585.17
2725,20152,65609.24
2726,20184,65633.32
2727,20212,65657.40
2728,20248,65681.47
2729,20276,65705.55
2730,20296,65729.63
2731,20304,65753.70
2732,20308,65777.78
2733,20316,65801.86
2734,20320,65825.93
2735,20320,65850.01
2736,20332,65874.09
2737,20348,65898.17
2738,20360,65922.24
2739,20376,65946.32
2740,20400,65970.40
2741,20420,65994.47
2742,20440,66018.55
2743,20468,66042.63
2744,20484,66066.70
2745,20508,66090.78
2746,20532,66114.86
2747,20556,66138.93
2748,20572,66163.01
2749,20572,66187.09
2750,20516,66211.16
2751,20424,66235.24
2752,20312,66259.32
2753,20204,66283.39
2754,20124,66307.47
2755,20076,66331.55
2756,20064,66355.62
2757,20072,66379.70
2758,20092,66403.78
2759,20120,66427.85
2760,20156,66451.93
2761,20192,66476.01
2762,20228,66500.08
2763,20252,66524.16
2764,20272,66548.24
2765,20280,66572.32
2766,20284,66596.39
2767,20288,66620.47
2768,20292,66644.55
2769,20296,66668.62
2770,20308,66692.70
2771,20328,66716.78
2772,20348,66740.85
2773,20372,66764.93
2774,20396,66789.01
2775,20416,66813.08
2776,20444,66837.16
2777,20468,66861.24
2778,20492,66885.31
2779,20516,66909.39
2780,20544,66933.47
2781,20564,66957.54
2782,20544,66981.62
2783,20480,67005.70
2784,20376,67029.77
2785,20264,67053.85
2786,20172,67077.93
2787,20112,67102.00
2788,20080,67126.08
2789,20076,67150.16
2790,20088,67174.23
2791,20116,67198.31
2792,20152,67222.39
2793,20188,67246.47
2794,20224,67270.54
2795,20256,67294.62
2796,20280,67318.70
2797,20284,67342.77
2798,20292,67366.85
2799,20284,67390.93
2800,20280,67415.00
2801,20284,67439.08
2802,20292,67463.16
2803,20304,67487.23
2804,20320,67511.31
2805,20336,67535.39
2806,20360,67559.46
2807,20384,67583.54
2808,20408,67607.62
2809,20432,67631.69
2810,20456,67655.77
2811,20480,67679.85
2812,20492,67703.92
2813,20460,67728.00
2814,20388,67752.08
2815,20288,67776.15
2816,20192,67800.23
2817,20120,67824.31
2818,20072,67848.38
2819,20060,67872.46
2820,20064,67896.54
2821,20088,67920.62
2822,20120,67944.69
2823,20160,67968.77
2824,20200,67992.85
2825,20236,68016.92
2826,20260,68041.00
2827,20276,68065.08
2828,20280,68089.15
2829,20280,68113.23
2830,20276,68137.31
2831,20272,68161.38
2832,20276,68185.46
2833,20284,68209.54
2834,20296,68233.61
2835,20312,68257.69
2836,20328,68281.77
2837,20344,68305.84
2838,20360,68329.92
2839,20384,68354.00
2840,20404,68378.07
2841,20424,68402.15
2842,20444,68426.23
2843,20444,68450.30
2844,20388,68474.38
2845,20288,68498.46
2846,20172,68522.53
2847,20068,68546.61
2848,20000,68570.69
2849,19960,68594.77
2850,19956,68618.84
2851,19972,68642.92
2852,19992,68667.00
2853,20032,68691.07
2854,20068,68715.15
2855,20108,68739.23
2856,20136,68763.30
2857,20160,68787.38
2858,20172,68811.46
2859,20172,68835.53
2860,20172,68859.61
2861,20176,68883.69
2862,20176,68907.76
2863,20188,68931.84
2864,20200,68955.92
2865,20220,68979.99
2866,20240,69004.07
2867,20264,69028.15
2868,20288,69052.22
2869,20312,69076.30
2870,20336,69100.38
2871,20364,69124.45
2872,20384,69148.53
2873,20376,69172.61
2874,20312,69196.68
2875,20212,69220.76
2876,20096,69244.84
2877,20000,69268.92
2878,19936,69292.99
2879,19904,69317.07
2880,19896,69341.15
2881,19908,69365.22
2882,19928,69389.30
2883,19960,69413.38
2884,19996,69437.45
2885,20028,69461.53
2886,20056,69485.61
2887,20072,69509.68
2888,20084,69533.76
2889,20084,69557.84
2890,20080,69581.91
2891,20080,69605.99
2892,20080,69630.07
2893,20088,69654.14
2894,20104,69678.22
2895,20120,69702.30
2896,20144,69726.37
2897,20168,69750.45
2898,20196,69774.53
2899,20224,69798.60
2900,20256,69822.68
2901,20284,69846.76
2902,20308,69870.83
2903,20308,69894.91
2904,20256,69918.99
2905,20156,69943.07
2906,20044,69967.14
2907,19940,69991.22
2908,19876,70015.30
2909,19852,70039.37
2910,19852,70063.45
2911,19872,70087.53
2912,19900,70111.60
2913,19936,70135.68
2914,19976,70159.76
2915,20016,70183.83
2916,20052,70207.91
2917,20076,70231.99
2918,20092,70256.06
2919,20104,70280.14
2920,20108,70304.22
2921,20116,70328.29
2922,20120,70352.37
2923,20132,70376.45
2924,20148,70400.52
2925,20168,70424.60
2926,20188,70448.68
2927,20212,70472.75
2928,20228,70496.83
2929,20256,70520.91
2930,20276,70544.98
2931,20304,70569.06
2932,20332,70593.14
2933,20344,70617.22
2934,20304,70641.29
2935,20216,70665.37
2936,20104,70689.45
2937,19996,70713.52
2938,19920,70737.60
2939,19880,70761.68
2940,19868,70785.75
2941,19884,70809.83
2942,19908,70833.91
2943,19944,70857.98
2944,19988,70882.06
2945,20028,70906.14
2946,20064,70930.21
2947,20096,70954.29
2948,20116,70978.37
2949,20120,71002.44
2950,20120,71026.52
2951,20124,71050.60
2952,20132,71074.67
2953,20140,71098.75
2954,20152,71122.83
2955,20168,71146.90
2956,20192,71170.98
2957,20216,71195.06
2958,20236,71219.13
2959,20264,71243.21
2960,20284,71267.29
2961,20308,71291.37
2962,20328,71315.44
2963,20316,71339.52
2964,20252,71363.60
2965,20160,71387.67
2966,20056,71411.75
2967,19968,71435.83
2968,19920,71459.90
2969,19900,71483.98
2970,19908,71508.06
2971,19924,71532.13
2972,19960,71556.21
2973,20000,71580.29
2974,20040,71604.36
2975,20076,71628.44
2976,20100,71652.52
2977,20112,71676.59
2978,20116,71700.67
2979,20112,71724.75
2980,20108,71748.82
2981,20108,71772.90
2982,20112,71796.98
2983,20124,71821.05
2984,20136,71845.13
2985,20152,71869.21
2986,20172,71893.28
2987,20192,71917.36
2988,20208,71941.44
2989,20228,71965.52
2990,20248,71989.59
2991,20268,72013.67
2992,20280,72037.75
2993,20240,72061.82
2994,20160,72085.90
2995,20052,72109.98
2996,19952,72134.05
2997,19876,72158.13
2998,19836,72182.21
2999,19824,72206.28
