Sample_Index,IR_Value,Timestamp_ms
0,21196,0.00
1,21236,19.98
2,21228,39.95
3,21344,59.93
4,21588,79.91
5,21860,99.88
6,22088,119.86
7,22236,139.83
8,22340,159.81
9,22436,179.79
10,22516,199.76
11,22576,219.74
12,22604,239.72
13,22596,259.69
14,22580,279.67
15,22568,299.64
16,22556,319.62
17,22552,339.60
18,22548,359.57
19,22544,379.55
20,22540,399.53
21,22552,419.50
22,22580,439.48
23,22616,459.45
24,22656,479.43
25,22696,499.41
26,22740,519.38
27,22796,539.36
28,22824,559.34
29,22796,579.31
30,22700,599.29
31,22564,619.26
32,22428,639.24
33,22340,659.22
34,22308,679.19
35,22316,699.17
36,22344,719.15
37,22392,739.12
38,22456,759.10
39,22532,779.07
40,22600,799.05
41,22652,819.03
42,22684,839.00
43,22704,858.98
44,22692,878.96
45,22684,898.93
46,22672,918.91
47,22672,938.88
48,22680,958.86
49,22692,978.84
50,22708,998.81
51,22724,1018.79
52,22736,1038.77
53,22748,1058.74
54,22756,1078.72
55,22768,1098.70
56,22780,1118.67
57,22796,1138.65
58,22808,1158.62
59,22836,1178.60
60,22864,1198.58
61,22892,1218.55
62,22888,1238.53
63,22820,1258.51
64,22684,1278.48
65,22508,1298.46
66,22364,1318.43
67,22276,1338.41
68,22236,1358.39
69,22232,1378.36
70,22248,1398.34
71,22284,1418.32
72,22336,1438.29
73,22392,1458.27
74,22436,1478.24
75,22472,1498.22
76,22496,1518.20
77,22516,1538.17
78,22524,1558.15
79,22524,1578.13
80,22532,1598.10
81,22536,1618.08
82,22556,1638.05
83,22592,1658.03
84,22632,1678.01
85,22684,1697.98
86,22732,1717.96
87,22776,1737.94
88,22816,1757.91
89,22856,1777.89
90,22892,1797.86
91,22928,1817.84
92,22968,1837.82
93,23004,1857.79
94,23020,1877.77
95,22968,1897.75
96,22860,1917.72
97,22720,1937.70
98,22596,1957.68
99,22504,1977.65
100,22452,1997.63
101,22448,2017.60
102,22468,2037.58
103,22508,2057.56
104,22560,2077.53
105,22620,2097.51
106,22676,2117.49
107,22712,2137.46
108,22728,2157.44
109,22736,2177.41
110,22736,2197.39
111,22732,2217.37
112,22732,2237.34
113,22740,2257.32
114,22752,2277.30
115,22764,2297.27
116,22788,2317.25
117,22812,2337.22
118,22836,2357.20
119,22860,2377.18
120,22888,2397.15
121,22920,2417.13
122,22948,2437.11
123,22976,2457.08
124,22968,2477.06
125,22896,2497.03
126,22768,2517.01
127,22624,2536.99
128,22500,2556.96
129,22412,2576.94
130,22380,2596.92
131,22384,2616.89
132,22420,2636.87
133,22464,2656.84
134,22520,2676.82
135,22572,2696.80
136,22612,2716.77
137,22632,2736.75
138,22644,2756.73
139,22636,2776.70
140,22624,2796.68
141,22620,2816.65
142,22624,2836.63
143,22628,2856.61
144,22648,2876.58
145,22668,2896.56
146,22696,2916.54
147,22720,2936.51
148,22748,2956.49
149,22780,2976.47
150,22812,2996.44
151,22836,3016.42
152,22828,3036.39
153,22748,3056.37
154,22624,3076.35
155,22480,3096.32
156,22368,3116.30
157,22308,3136.28
158,22284,3156.25
159,22296,3176.23
160,22336,3196.20
161,22388,3216.18
162,22444,3236.16
163,22504,3256.13
164,22544,3276.11
165,22572,3296.09
166,22580,3316.06
167,22576,3336.04
168,22564,3356.01
169,22564,3375.99
170,22556,3395.97
171,22568,3415.94
172,22584,3435.92
173,22604,3455.90
174,22624,3475.87
175,22648,3495.85
176,22672,3515.82
177,22696,3535.80
178,22720,3555.78
179,22708,3575.75
180,22624,3595.73
181,22484,3615.71
182,22328,3635.68
183,22204,3655.66
184,22140,3675.63
185,22128,3695.61
186,22144,3715.59
187,22180,3735.56
188,22232,3755.54
189,22292,3775.52
190,22344,3795.49
191,22388,3815.47
192,22416,3835.45
193,22428,3855.42
194,22432,3875.40
195,22420,3895.37
196,22420,3915.35
197,22424,3935.33
198,22440,3955.30
199,22464,3975.28
200,22496,3995.26
201,22524,4015.23
202,22560,4035.21
203,22592,4055.18
204,22624,4075.16
205,22660,4095.14
206,22688,4115.11
207,22680,4135.09
208,22592,4155.07
209,22456,4175.04
210,22312,4195.02
211,22200,4214.99
212,22144,4234.97
213,22132,4254.95
214,22148,4274.92
215,22188,4294.90
216,22224,4314.88
217,22280,4334.85
218,22324,4354.83
219,22360,4374.80
220,22388,4394.78
221,22404,4414.76
222,22408,4434.73
223,22412,4454.71
224,22420,4474.69
225,22432,4494.66
226,22456,4514.64
227,22480,4534.61
228,22508,4554.59
229,22540,4574.57
230,22572,4594.54
231,22604,4614.52
232,22636,4634.50
233,22676,4654.47
234,22712,4674.45
235,22748,4694.42
236,22784,4714.40
237,22820,4734.38
238,22852,4754.35
239,22848,4774.33
240,22780,4794.31
241,22672,4814.28
242,22556,4834.26
243,22464,4854.24
244,22420,4874.21
245,22404,4894.19
246,22420,4914.16
247,22448,4934.14
248,22480,4954.12
249,22520,4974.09
250,22564,4994.07
251,22600,5014.05
252,22632,5034.02
253,22652,5054.00
254,22672,5073.97
255,22680,5093.95
256,22692,5113.93
257,22712,5133.90
258,22732,5153.88
259,22760,5173.86
260,22788,5193.83
261,22820,5213.81
262,22852,5233.78
263,22888,5253.76
264,22920,5273.74
265,22956,5293.71
266,22988,5313.69
267,23024,5333.67
268,23056,5353.64
269,23084,5373.62
270,23116,5393.59
271,23144,5413.57
272,23168,5433.55
273,23196,5453.52
274,23224,5473.50
275,23236,5493.48
276,23208,5513.45
277,23160,5533.43
278,23108,5553.40
279,23064,5573.38
280,23040,5593.36
281,23032,5613.33
282,23036,5633.31
283,23048,5653.29
284,23068,5673.26
285,23092,5693.24
286,23116,5713.21
287,23140,5733.19
288,23164,5753.17
289,23176,5773.14
290,23188,5793.12
291,23196,5813.10
292,23212,5833.07
293,23228,5853.05
294,23244,5873.03
295,23268,5893.00
296,23288,5912.98
297,23312,5932.95
298,23336,5952.93
299,23356,5972.91
300,23372,5992.88
301,23396,6012.86
302,23416,6032.84
303,23436,6052.81
304,23452,6072.79
305,23468,6092.76
306,23484,6112.74
307,23500,6132.72
308,23520,6152.69
309,23536,6172.67
310,23552,6192.65
311,23568,6212.62
312,23584,6232.60
313,23584,6252.57
314,23560,6272.55
315,23524,6292.53
316,23488,6312.50
317,23468,6332.48
318,23456,6352.46
319,23464,6372.43
320,23468,6392.41
321,23480,6412.38
322,23496,6432.36
323,23508,6452.34
324,23524,6472.31
325,23536,6492.29
326,23544,6512.27
327,23548,6532.24
328,23548,6552.22
329,23556,6572.19
330,23564,6592.17
331,23572,6612.15
332,23584,6632.12
333,23596,6652.10
334,23604,6672.08
335,23620,6692.05
336,23632,6712.03
337,23644,6732.01
338,23656,6751.98
339,23672,6771.96
340,23680,6791.93
341,23696,6811.91
342,23708,6831.89
343,23716,6851.86
344,23724,6871.84
345,23732,6891.82
346,23740,6911.79
347,23748,6931.77
348,23760,6951.74
349,23772,6971.72
350,23776,6991.70
351,23772,7011.67
352,23756,7031.65
353,23728,7051.63
354,23700,7071.60
355,23688,7091.58
356,23684,7111.55
357,23684,7131.53
358,23692,7151.51
359,23708,7171.48
360,23716,7191.46
361,23728,7211.44
362,23744,7231.41
363,23752,7251.39
364,23756,7271.36
365,23764,7291.34
366,23764,7311.32
367,23768,7331.29
368,23768,7351.27
369,23776,7371.25
370,23784,7391.22
371,23792,7411.20
372,23804,7431.17
373,23816,7451.15
374,23828,7471.13
375,23840,7491.10
376,23852,7511.08
377,23864,7531.06
378,23872,7551.03
379,23880,7571.01
380,23888,7590.98
381,23896,7610.96
382,23904,7630.94
383,23912,7650.91
384,23924,7670.89
385,23928,7690.87
386,23916,7710.84
387,23900,7730.82
388,23884,7750.80
389,23876,7770.77
390,23876,7790.75
391,23884,7810.72
392,23896,7830.70
393,23908,7850.68
394,23920,7870.65
395,23928,7890.63
396,23944,7910.61
397,23952,7930.58
398,23960,7950.56
399,23964,7970.53
400,23968,7990.51
401,23972,8010.49
402,23968,8030.46
403,23972,8050.44
404,23976,8070.42
405,23984,8090.39
406,23992,8110.37
407,24004,8130.34
408,24012,8150.32
409,24024,8170.30
410,24032,8190.27
411,24044,8210.25
412,24052,8230.23
413,24056,8250.20
414,24068,8270.18
415,24072,8290.15
416,24060,8310.13
417,24044,8330.11
418,24036,8350.08
419,24032,8370.06
420,24036,8390.04
421,24044,8410.01
422,24060,8429.99
423,24072,8449.96
424,24080,8469.94
425,24096,8489.92
426,24104,8509.89
427,24112,8529.87
428,24116,8549.85
429,24120,8569.82
430,24124,8589.80
431,24124,8609.78
432,24128,8629.75
433,24128,8649.73
434,24136,8669.70
435,24144,8689.68
436,24148,8709.66
437,24152,8729.63
438,24160,8749.61
439,24164,8769.59
440,24172,8789.56
441,24180,8809.54
442,24188,8829.51
443,24188,8849.49
444,24192,8869.47
445,24176,8889.44
446,24160,8909.42
447,24152,8929.40
448,24148,8949.37
449,24156,8969.35
450,24164,8989.32
451,24172,9009.30
452,24184,9029.28
453,24196,9049.25
454,24208,9069.23
455,24220,9089.21
456,24224,9109.18
457,24224,9129.16
458,24224,9149.13
459,24228,9169.11
460,24228,9189.09
461,24232,9209.06
462,24236,9229.04
463,24240,9249.02
464,24252,9268.99
465,24264,9288.97
466,24268,9308.94
467,24276,9328.92
468,24280,9348.90
469,24292,9368.87
470,24296,9388.85
471,24304,9408.83
472,24308,9428.80
473,24300,9448.78
474,24280,9468.75
475,24268,9488.73
476,24260,9508.71
477,24256,9528.68
478,24268,9548.66
479,24280,9568.64
480,24288,9588.61
481,24296,9608.59
482,24304,9628.57
483,24308,9648.54
484,24312,9668.52
485,24316,9688.49
486,24312,9708.47
487,24312,9728.45
488,24312,9748.42
489,24316,9768.40
490,24312,9788.38
491,24320,9808.35
492,24324,9828.33
493,24328,9848.30
494,24336,9868.28
495,24340,9888.26
496,24340,9908.23
497,24348,9928.21
498,24356,9948.19
499,24360,9968.16
500,24364,9988.14
501,24368,10008.11
502,24376,10028.09
503,24372,10048.07
504,24356,10068.04
505,24340,10088.02
506,24324,10108.00
507,24324,10127.97
508,24328,10147.95
509,24332,10167.92
510,24344,10187.90
511,24356,10207.88
512,24360,10227.85
513,24368,10247.83
514,24372,10267.81
515,24380,10287.78
516,24384,10307.76
517,24384,10327.73
518,24384,10347.71
519,24384,10367.69
520,24392,10387.66
521,24388,10407.64
522,24396,10427.62
523,24400,10447.59
524,24404,10467.57
525,24408,10487.54
526,24416,10507.52
527,24420,10527.50
528,24424,10547.47
529,24420,10567.45
530,24428,10587.43
531,24424,10607.40
532,24432,10627.38
533,24436,10647.36
534,24440,10667.33
535,24444,10687.31
536,24452,10707.28
537,24452,10727.26
538,24444,10747.24
539,24424,10767.21
540,24404,10787.19
541,24388,10807.17
542,24380,10827.14
543,24380,10847.12
544,24388,10867.09
545,24396,10887.07
546,24404,10907.05
547,24408,10927.02
548,24412,10947.00
549,24416,10966.98
550,24424,10986.95
551,24428,11006.93
552,24432,11026.90
553,24428,11046.88
554,24428,11066.86
555,24432,11086.83
556,24436,11106.81
557,24436,11126.79
558,24440,11146.76
559,24444,11166.74
560,24452,11186.71
561,24456,11206.69
562,24460,11226.67
563,24464,11246.64
564,24464,11266.62
565,24472,11286.60
566,24476,11306.57
567,24480,11326.55
568,24488,11346.52
569,24488,11366.50
570,24488,11386.48
571,24492,11406.45
572,24492,11426.43
573,24500,11446.41
574,24496,11466.38
575,24496,11486.36
576,24472,11506.34
577,24448,11526.31
578,24432,11546.29
579,24416,11566.26
580,24408,11586.24
581,24408,11606.22
582,24408,11626.19
583,24412,11646.17
584,24416,11666.15
585,24416,11686.12
586,24420,11706.10
587,24424,11726.07
588,24424,11746.05
589,24424,11766.03
590,24424,11786.00
591,24424,11805.98
592,24420,11825.96
593,24420,11845.93
594,24424,11865.91
595,24424,11885.88
596,24428,11905.86
597,24432,11925.84
598,24436,11945.81
599,24436,11965.79
600,24444,11985.77
601,24448,12005.74
602,24452,12025.72
603,24456,12045.69
604,24456,12065.67
605,24460,12085.65
606,24464,12105.62
607,24468,12125.60
608,24468,12145.58
609,24476,12165.55
610,24480,12185.53
611,24464,12205.50
612,24444,12225.48
613,24420,12245.46
614,24396,12265.43
615,24388,12285.41
616,24384,12305.39
617,24380,12325.36
618,24380,12345.34
619,24384,12365.31
620,24388,12385.29
621,24388,12405.27
622,24392,12425.24
623,24392,12445.22
624,24392,12465.20
625,24388,12485.17
626,24388,12505.15
627,24380,12525.13
628,24376,12545.10
629,24376,12565.08
630,24376,12585.05
631,24376,12605.03
632,24384,12625.01
633,24384,12644.98
634,24392,12664.96
635,24396,12684.94
636,24400,12704.91
637,24404,12724.89
638,24404,12744.86
639,24408,12764.84
640,24412,12784.82
641,24416,12804.79
642,24416,12824.77
643,24392,12844.75
644,24368,12864.72
645,24348,12884.70
646,24332,12904.67
647,24324,12924.65
648,24328,12944.63
649,24328,12964.60
650,24336,12984.58
651,24340,13004.56
652,24348,13024.53
653,24356,13044.51
654,24360,13064.48
655,24360,13084.46
656,24356,13104.44
657,24352,13124.41
658,24348,13144.39
659,24348,13164.37
660,24348,13184.34
661,24344,13204.32
662,24348,13224.29
663,24348,13244.27
664,24352,13264.25
665,24352,13284.22
666,24352,13304.20
667,24352,13324.18
668,24360,13344.15
669,24360,13364.13
670,24368,13384.11
671,24368,13404.08
672,24364,13424.06
673,24348,13444.03
674,24324,13464.01
675,24292,13483.99
676,24272,13503.96
677,24260,13523.94
678,24256,13543.92
679,24260,13563.89
680,24268,13583.87
681,24272,13603.84
682,24276,13623.82
683,24288,13643.80
684,24288,13663.77
685,24292,13683.75
686,24292,13703.73
687,24288,13723.70
688,24284,13743.68
689,24280,13763.65
690,24280,13783.63
691,24284,13803.61
692,24288,13823.58
693,24288,13843.56
694,24292,13863.54
695,24296,13883.51
696,24300,13903.49
697,24304,13923.46
698,24308,13943.44
699,24312,13963.42
700,24316,13983.39
701,24320,14003.37
702,24308,14023.35
703,24276,14043.32
704,24244,14063.30
705,24208,14083.27
706,24180,14103.25
707,24168,14123.23
708,24164,14143.20
709,24156,14163.18
710,24160,14183.16
711,24160,14203.13
712,24168,14223.11
713,24172,14243.08
714,24176,14263.06
715,24176,14283.04
716,24164,14303.01
717,24160,14322.99
718,24156,14342.97
719,24148,14362.94
720,24144,14382.92
721,24148,14402.90
722,24152,14422.87
723,24156,14442.85
724,24164,14462.82
725,24168,14482.80
726,24168,14502.78
727,24176,14522.75
728,24180,14542.73
729,24184,14562.71
730,24192,14582.68
731,24192,14602.66
732,24180,14622.63
733,24156,14642.61
734,24116,14662.59
735,24072,14682.56
736,24040,14702.54
737,24016,14722.52
738,24004,14742.49
739,24000,14762.47
740,24000,14782.44
741,23996,14802.42
742,24004,14822.40
743,24008,14842.37
744,24012,14862.35
745,24016,14882.33
746,24008,14902.30
747,24004,14922.28
748,24000,14942.25
749,23996,14962.23
750,23996,14982.21
751,23996,15002.18
752,23992,15022.16
753,24000,15042.14
754,24004,15062.11
755,24008,15082.09
756,24016,15102.06
757,24024,15122.04
758,24028,15142.02
759,24036,15161.99
760,24044,15181.97
761,24052,15201.95
762,24048,15221.92
763,24060,15241.90
764,24064,15261.87
765,24068,15281.85
766,24080,15301.83
767,24084,15321.80
768,24080,15341.78
769,24052,15361.76
770,24004,15381.73
771,23952,15401.71
772,23908,15421.69
773,23876,15441.66
774,23864,15461.64
775,23856,15481.61
776,23856,15501.59
777,23860,15521.57
778,23860,15541.54
779,23868,15561.52
780,23876,15581.50
781,23880,15601.47
782,23880,15621.45
783,23880,15641.42
784,23880,15661.40
785,23872,15681.38
786,23872,15701.35
787,23872,15721.33
788,23880,15741.31
789,23884,15761.28
790,23892,15781.26
791,23904,15801.23
792,23908,15821.21
793,23920,15841.19
794,23928,15861.16
795,23932,15881.14
796,23944,15901.12
797,23948,15921.09
798,23956,15941.07
799,23956,15961.04
800,23968,15981.02
801,23972,16001.00
802,23984,16020.97
803,23992,16040.95
804,24000,16060.93
805,24008,16080.90
806,24016,16100.88
807,24000,16120.85
808,23968,16140.83
809,23916,16160.81
810,23864,16180.78
811,23820,16200.76
812,23792,16220.74
813,23776,16240.71
814,23772,16260.69
815,23776,16280.67
816,23780,16300.64
817,23792,16320.62
818,23800,16340.59
819,23808,16360.57
820,23812,16380.55
821,23820,16400.52
822,23820,16420.50
823,23820,16440.48
824,23816,16460.45
825,23824,16480.43
826,23828,16500.40
827,23828,16520.38
828,23836,16540.36
829,23844,16560.33
830,23856,16580.31
831,23864,16600.29
832,23872,16620.26
833,23884,16640.24
834,23896,16660.21
835,23908,16680.19
836,23916,16700.17
837,23924,16720.14
838,23936,16740.12
839,23944,16760.10
840,23952,16780.07
841,23960,16800.05
842,23968,16820.02
843,23976,16840.00
844,23984,16859.98
845,23992,16879.95
846,24004,16899.93
847,23992,16919.91
848,23956,16939.88
849,23908,16959.86
850,23848,16979.83
851,23796,16999.81
852,23768,17019.79
853,23752,17039.76
854,23748,17059.74
855,23752,17079.72
856,23760,17099.69
857,23772,17119.67
858,23784,17139.64
859,23792,17159.62
860,23796,17179.60
861,23800,17199.57
862,23804,17219.55
863,23800,17239.53
864,23800,17259.50
865,23800,17279.48
866,23804,17299.46
867,23808,17319.43
868,23820,17339.41
869,23828,17359.38
870,23840,17379.36
871,23848,17399.34
872,23860,17419.31
873,23876,17439.29
874,23888,17459.27
875,23896,17479.24
876,23908,17499.22
877,23920,17519.19
878,23928,17539.17
879,23936,17559.15
880,23952,17579.12
881,23960,17599.10
882,23972,17619.08
883,23980,17639.05
884,23988,17659.03
885,23976,17679.00
886,23944,17698.98
887,23888,17718.96
888,23832,17738.93
889,23788,17758.91
890,23756,17778.89
891,23740,17798.86
892,23740,17818.84
893,23744,17838.81
894,23756,17858.79
895,23768,17878.77
896,23780,17898.74
897,23788,17918.72
898,23792,17938.70
899,23792,17958.67
900,23796,17978.65
901,23796,17998.62
902,23792,18018.60
903,23792,18038.58
904,23800,18058.55
905,23800,18078.53
906,23812,18098.51
907,23824,18118.48
908,23832,18138.46
909,23848,18158.44
910,23860,18178.41
911,23872,18198.39
912,23884,18218.36
913,23896,18238.34
914,23908,18258.32
915,23920,18278.29
916,23928,18298.27
917,23940,18318.25
918,23948,18338.22
919,23956,18358.20
920,23948,18378.17
921,23912,18398.15
922,23864,18418.13
923,23816,18438.10
924,23772,18458.08
925,23744,18478.06
926,23732,18498.03
927,23728,18518.01
928,23740,18537.98
929,23748,18557.96
930,23764,18577.94
931,23776,18597.91
932,23788,18617.89
933,23792,18637.87
934,23792,18657.84
935,23792,18677.82
936,23788,18697.79
937,23788,18717.77
938,23788,18737.75
939,23788,18757.72
940,23792,18777.70
941,23800,18797.68
942,23808,18817.65
943,23820,18837.63
944,23832,18857.60
945,23844,18877.58
946,23852,18897.56
947,23868,18917.53
948,23880,18937.51
949,23896,18957.49
950,23908,18977.46
951,23912,18997.44
952,23888,19017.41
953,23844,19037.39
954,23792,19057.37
955,23740,19077.34
956,23696,19097.32
957,23672,19117.30
958,23664,19137.27
959,23668,19157.25
960,23676,19177.23
961,23692,19197.20
962,23704,19217.18
963,23724,19237.15
964,23736,19257.13
965,23740,19277.11
966,23740,19297.08
967,23740,19317.06
968,23732,19337.04
969,23732,19357.01
970,23728,19376.99
971,23728,19396.96
972,23732,19416.94
973,23744,19436.92
974,23748,19456.89
975,23756,19476.87
976,23772,19496.85
977,23784,19516.82
978,23796,19536.80
979,23808,19556.77
980,23820,19576.75
981,23808,19596.73
982,23772,19616.70
983,23708,19636.68
984,23644,19656.66
985,23584,19676.63
986,23532,19696.61
987,23512,19716.58
988,23504,19736.56
989,23508,19756.54
990,23520,19776.51
991,23532,19796.49
992,23552,19816.47
993,23560,19836.44
994,23564,19856.42
995,23568,19876.39
996,23572,19896.37
997,23564,19916.35
998,23564,19936.32
999,23560,19956.30
1000,23564,19976.28
1001,23568,19996.25
1002,23576,20016.23
1003,23584,20036.21
1004,23600,20056.18
1005,23608,20076.16
1006,23620,20096.13
1007,23632,20116.11
1008,23640,20136.09
1009,23652,20156.06
1010,23640,20176.04
1011,23596,20196.02
1012,23524,20215.99
1013,23436,20235.97
1014,23364,20255.94
1015,23316,20275.92
1016,23288,20295.90
1017,23280,20315.87
1018,23284,20335.85
1019,23288,20355.83
1020,23304,20375.80
1021,23320,20395.78
1022,23332,20415.75
1023,23340,20435.73
1024,23344,20455.71
1025,23344,20475.68
1026,23344,20495.66
1027,23340,20515.64
1028,23344,20535.61
1029,23348,20555.59
1030,23360,20575.56
1031,23368,20595.54
1032,23384,20615.52
1033,23396,20635.49
1034,23408,20655.47
1035,23420,20675.45
1036,23432,20695.42
1037,23448,20715.40
1038,23460,20735.37
1039,23472,20755.35
1040,23488,20775.33
1041,23480,20795.30
1042,23424,20815.28
1043,23340,20835.26
1044,23240,20855.23
1045,23152,20875.21
1046,23084,20895.18
1047,23044,20915.16
1048,23020,20935.14
1049,23012,20955.11
1050,23008,20975.09
1051,23016,20995.07
1052,23028,21015.04
1053,23040,21035.02
1054,23052,21055.00
1055,23048,21074.97
1056,23032,21094.95
1057,23020,21114.92
1058,23008,21134.90
1059,22996,21154.88
1060,22996,21174.85
1061,23004,21194.83
1062,23020,21214.81
1063,23032,21234.78
1064,23040,21254.76
1065,23060,21274.73
1066,23080,21294.71
1067,23100,21314.69
1068,23124,21334.66
1069,23148,21354.64
1070,23172,21374.62
1071,23192,21394.59
1072,23212,21414.57
1073,23232,21434.54
1074,23240,21454.52
1075,23252,21474.50
1076,23256,21494.47
1077,23260,21514.45
1078,23268,21534.43
1079,23276,21554.40
1080,23280,21574.38
1081,23236,21594.35
1082,23144,21614.33
1083,23016,21634.31
1084,22876,21654.28
1085,22764,21674.26
1086,22692,21694.24
1087,22656,21714.21
1088,22644,21734.19
1089,22644,21754.16
1090,22652,21774.14
1091,22664,21794.12
1092,22684,21814.09
1093,22700,21834.07
1094,22712,21854.05
1095,22724,21874.02
1096,22720,21894.00
1097,22716,21913.97
1098,22720,21933.95
1099,22728,21953.93
1100,22740,21973.90
1101,22756,21993.88
1102,22776,22013.86
1103,22804,22033.83
1104,22824,22053.81
1105,22848,22073.79
1106,22872,22093.76
1107,22892,22113.74
1108,22916,22133.71
1109,22940,22153.69
1110,22956,22173.67
1111,22980,22193.64
1112,23000,22213.62
1113,23024,22233.60
1114,23048,22253.57
1115,23064,22273.55
1116,23092,22293.52
1117,23112,22313.50
1118,23132,22333.48
1119,23156,22353.45
1120,23180,22373.43
1121,23204,22393.41
1122,23220,22413.38
1123,23200,22433.36
1124,23132,22453.33
1125,23016,22473.31
1126,22888,22493.29
1127,22784,22513.26
1128,22724,22533.24
1129,22696,22553.22
1130,22700,22573.19
1131,22712,22593.17
1132,22732,22613.14
1133,22756,22633.12
1134,22784,22653.10
1135,22808,22673.07
1136,22828,22693.05
1137,22840,22713.03
1138,22848,22733.00
1139,22852,22752.98
1140,22848,22772.95
1141,22852,22792.93
1142,22864,22812.91
1143,22876,22832.88
1144,22892,22852.86
1145,22912,22872.84
1146,22936,22892.81
1147,22964,22912.79
1148,22988,22932.77
1149,23012,22952.74
1150,23036,22972.72
1151,23056,22992.69
1152,23080,23012.67
1153,23100,23032.65
1154,23116,23052.62
1155,23136,23072.60
1156,23160,23092.58
1157,23180,23112.55
1158,23196,23132.53
1159,23216,23152.50
1160,23232,23172.48
1161,23256,23192.46
1162,23272,23212.43
1163,23268,23232.41
1164,23224,23252.39
1165,23136,23272.36
1166,23016,23292.34
1167,22908,23312.31
1168,22828,23332.29
1169,22788,23352.27
1170,22784,23372.24
1171,22792,23392.22
1172,22812,23412.20
1173,22844,23432.17
1174,22872,23452.15
1175,22900,23472.12
1176,22928,23492.10
1177,22940,23512.08
1178,22948,23532.05
1179,22948,23552.03
1180,22948,23572.01
1181,22944,23591.98
1182,22952,23611.96
1183,22960,23631.93
1184,22976,23651.91
1185,22992,23671.89
1186,23012,23691.86
1187,23036,23711.84
1188,23060,23731.82
1189,23088,23751.79
1190,23116,23771.77
1191,23140,23791.74
1192,23164,23811.72
1193,23188,23831.70
1194,23204,23851.67
1195,23224,23871.65
1196,23236,23891.63
1197,23252,23911.60
1198,23272,23931.58
1199,23288,23951.56
1200,23296,23971.53
1201,23276,23991.51
1202,23208,24011.48
1203,23100,24031.46
1204,22992,24051.44
1205,22900,24071.41
1206,22840,24091.39
1207,22820,24111.37
1208,22828,24131.34
1209,22852,24151.32
1210,22876,24171.29
1211,22912,24191.27
1212,22948,24211.25
1213,22976,24231.22
1214,22996,24251.20
1215,23004,24271.18
1216,23008,24291.15
1217,23004,24311.13
1218,22996,24331.10
1219,23000,24351.08
1220,23008,24371.06
1221,23024,24391.03
1222,23036,24411.01
1223,23060,24430.99
1224,23084,24450.96
1225,23104,24470.94
1226,23124,24490.91
1227,23148,24510.89
1228,23168,24530.87
1229,23188,24550.84
1230,23204,24570.82
1231,23220,24590.80
1232,23236,24610.77
1233,23260,24630.75
1234,23260,24650.72
1235,23220,24670.70
1236,23128,24690.68
1237,23012,24710.65
1238,22900,24730.63
1239,22820,24750.61
1240,22776,24770.58
1241,22768,24790.56
1242,22776,24810.54
1243,22800,24830.51
1244,22832,24850.49
1245,22864,24870.46
1246,22896,24890.44
1247,22920,24910.42
1248,22936,24930.39
1249,22940,24950.37
1250,22944,24970.35
1251,22936,24990.32
1252,22936,25010.30
1253,22940,25030.27
1254,22952,25050.25
1255,22968,25070.23
1256,22992,25090.20
1257,23016,25110.18
1258,23040,25130.16
1259,23064,25150.13
1260,23084,25170.11
1261,23108,25190.08
1262,23132,25210.06
1263,23152,25230.04
1264,23172,25250.01
1265,23184,25269.99
1266,23156,25289.97
1267,23080,25309.94
1268,22960,25329.92
1269,22836,25349.89
1270,22744,25369.87
1271,22688,25389.85
1272,22664,25409.82
1273,22672,25429.80
1274,22684,25449.78
1275,22712,25469.75
1276,22740,25489.73
1277,22772,25509.70
1278,22800,25529.68
1279,22824,25549.66
1280,22836,25569.63
1281,22836,25589.61
1282,22836,25609.59
1283,22836,25629.56
1284,22844,25649.54
1285,22852,25669.51
1286,22872,25689.49
1287,22892,25709.47
1288,22916,25729.44
1289,22940,25749.42
1290,22968,25769.40
1291,22992,25789.37
1292,23020,25809.35
1293,23044,25829.33
1294,23064,25849.30
1295,23088,25869.28
1296,23112,25889.25
1297,23128,25909.23
1298,23128,25929.21
1299,23060,25949.18
1300,22956,25969.16
1301,22824,25989.14
1302,22716,26009.11
1303,22652,26029.09
1304,22624,26049.06
1305,22628,26069.04
1306,22640,26089.02
1307,22660,26108.99
1308,22684,26128.97
1309,22712,26148.95
1310,22744,26168.92
1311,22768,26188.90
1312,22792,26208.87
1313,22800,26228.85
1314,22808,26248.83
1315,22816,26268.80
1316,22816,26288.78
1317,22828,26308.76
1318,22844,26328.73
1319,22864,26348.71
1320,22888,26368.68
1321,22912,26388.66
1322,22940,26408.64
1323,22968,26428.61
1324,22996,26448.59
1325,23012,26468.57
1326,23040,26488.54
1327,23060,26508.52
1328,23084,26528.49
1329,23108,26548.47
1330,23128,26568.45
1331,23148,26588.42
1332,23168,26608.40
1333,23160,26628.38
1334,23108,26648.35
1335,23016,26668.33
1336,22904,26688.30
1337,22808,26708.28
1338,22748,26728.26
1339,22716,26748.23
1340,22712,26768.21
1341,22712,26788.19
1342,22728,26808.16
1343,22740,26828.14
1344,22764,26848.12
1345,22788,26868.09
1346,22808,26888.07
1347,22832,26908.04
1348,22848,26928.02
1349,22852,26948.00
1350,22860,26967.97
1351,22864,26987.95
1352,22868,27007.93
1353,22884,27027.90
1354,22904,27047.88
1355,22924,27067.85
1356,22948,27087.83
1357,22972,27107.81
1358,23000,27127.78
1359,23024,27147.76
1360,23052,27167.74
1361,23080,27187.71
1362,23104,27207.69
1363,23128,27227.66
1364,23148,27247.64
1365,23168,27267.62
1366,23188,27287.59
1367,23204,27307.57
1368,23224,27327.55
1369,23244,27347.52
1370,23244,27367.50
1371,23208,27387.47
1372,23136,27407.45
1373,23040,27427.43
1374,22948,27447.40
1375,22876,27467.38
1376,22840,27487.36
1377,22824,27507.33
1378,22824,27527.31
1379,22836,27547.28
1380,22856,27567.26
1381,22880,27587.24
1382,22904,27607.21
1383,22924,27627.19
1384,22936,27647.17
1385,22944,27667.14
1386,22944,27687.12
1387,22944,27707.10
1388,22948,27727.07
1389,22952,27747.05
1390,22964,27767.02
1391,22980,27787.00
1392,23000,27806.98
1393,23020,27826.95
1394,23044,27846.93
1395,23068,27866.91
1396,23088,27886.88
1397,23112,27906.86
1398,23132,27926.83
1399,23152,27946.81
1400,23172,27966.79
1401,23184,27986.76
1402,23204,28006.74
1403,23224,28026.72
1404,23248,28046.69
1405,23256,28066.67
1406,23232,28086.64
1407,23172,28106.62
1408,23088,28126.60
1409,23008,28146.57
1410,22940,28166.55
1411,22904,28186.53
1412,22892,28206.50
1413,22900,28226.48
1414,22916,28246.45
1415,22940,28266.43
1416,22968,28286.41
1417,22996,28306.38
1418,23020,28326.36
1419,23040,28346.34
1420,23048,28366.31
1421,23056,28386.29
1422,23060,28406.26
1423,23068,28426.24
1424,23076,28446.22
1425,23088,28466.19
1426,23104,28486.17
1427,23128,28506.15
1428,23148,28526.12
1429,23172,28546.10
1430,23192,28566.07
1431,23212,28586.05
1432,23236,28606.03
1433,23260,28626.00
1434,23280,28645.98
1435,23300,28665.96
1436,23316,28685.93
1437,23340,28705.91
1438,23352,28725.89
1439,23360,28745.86
1440,23336,28765.84
1441,23280,28785.81
1442,23208,28805.79
1443,23136,28825.77
1444,23080,28845.74
1445,23056,28865.72
1446,23040,28885.70
1447,23048,28905.67
1448,23060,28925.65
1449,23080,28945.62
1450,23100,28965.60
1451,23120,28985.58
1452,23140,29005.55
1453,23156,29025.53
1454,23172,29045.51
1455,23176,29065.48
1456,23188,29085.46
1457,23196,29105.43
1458,23208,29125.41
1459,23220,29145.39
1460,23244,29165.36
1461,23264,29185.34
1462,23288,29205.32
1463,23312,29225.29
1464,23340,29245.27
1465,23356,29265.24
1466,23384,29285.22
1467,23408,29305.20
1468,23428,29325.17
1469,23452,29345.15
1470,23468,29365.13
1471,23488,29385.10
1472,23512,29405.08
1473,23524,29425.05
1474,23508,29445.03
1475,23476,29465.01
1476,23436,29484.98
1477,23392,29504.96
1478,23360,29524.94
1479,23348,29544.91
1480,23344,29564.89
1481,23344,29584.87
1482,23356,29604.84
1483,23360,29624.82
1484,23372,29644.79
1485,23392,29664.77
1486,23404,29684.75
1487,23416,29704.72
1488,23424,29724.70
1489,23432,29744.68
1490,23440,29764.65
1491,23444,29784.63
1492,23460,29804.60
1493,23468,29824.58
1494,23484,29844.56
1495,23496,29864.53
1496,23512,29884.51
1497,23532,29904.49
1498,23548,29924.46
1499,23568,29944.44
1500,23584,29964.41
1501,23600,29984.39
1502,23616,30004.37
1503,23636,30024.34
1504,23652,30044.32
1505,23664,30064.30
1506,23680,30084.27
1507,23696,30104.25
1508,23712,30124.22
1509,23728,30144.20
1510,23740,30164.18
1511,23724,30184.15
1512,23704,30204.13
1513,23672,30224.11
1514,23640,30244.08
1515,23628,30264.06
1516,23620,30284.03
1517,23624,30304.01
1518,23632,30323.99
1519,23640,30343.96
1520,23656,30363.94
1521,23668,30383.92
1522,23680,30403.89
1523,23684,30423.87
1524,23688,30443.84
1525,23692,30463.82
1526,23692,30483.80
1527,23692,30503.77
1528,23692,30523.75
1529,23696,30543.73
1530,23700,30563.70
1531,23708,30583.68
1532,23720,30603.66
1533,23728,30623.63
1534,23744,30643.61
1535,23752,30663.58
1536,23756,30683.56
1537,23768,30703.54
1538,23776,30723.51
1539,23784,30743.49
1540,23796,30763.47
1541,23804,30783.44
1542,23812,30803.42
1543,23828,30823.39
1544,23832,30843.37
1545,23844,30863.35
1546,23852,30883.32
1547,23860,30903.30
1548,23872,30923.28
1549,23880,30943.25
1550,23884,30963.23
1551,23880,30983.20
1552,23856,31003.18
1553,23828,31023.16
1554,23808,31043.13
1555,23792,31063.11
1556,23788,31083.09
1557,23788,31103.06
1558,23796,31123.04
1559,23808,31143.01
1560,23816,31162.99
1561,23824,31182.97
1562,23832,31202.94
1563,23840,31222.92
1564,23844,31242.90
1565,23844,31262.87
1566,23844,31282.85
1567,23840,31302.82
1568,23836,31322.80
1569,23836,31342.78
1570,23836,31362.75
1571,23844,31382.73
1572,23848,31402.71
1573,23856,31422.68
1574,23864,31442.66
1575,23868,31462.63
1576,23880,31482.61
1577,23884,31502.59
1578,23892,31522.56
1579,23896,31542.54
1580,23900,31562.52
1581,23908,31582.49
1582,23916,31602.47
1583,23924,31622.45
1584,23928,31642.42
1585,23932,31662.40
1586,23940,31682.37
1587,23948,31702.35
1588,23956,31722.33
1589,23960,31742.30
1590,23968,31762.28
1591,23968,31782.26
1592,23952,31802.23
1593,23928,31822.21
1594,23908,31842.18
1595,23892,31862.16
1596,23880,31882.14
1597,23884,31902.11
1598,23884,31922.09
1599,23900,31942.07
1600,23908,31962.04
1601,23916,31982.02
1602,23924,32001.99
1603,23928,32021.97
1604,23936,32041.95
1605,23936,32061.92
1606,23932,32081.90
1607,23932,32101.88
1608,23936,32121.85
1609,23932,32141.83
1610,23936,32161.80
1611,23940,32181.78
1612,23936,32201.76
1613,23944,32221.73
1614,23944,32241.71
1615,23952,32261.69
1616,23952,32281.66
1617,23960,32301.64
1618,23964,32321.61
1619,23972,32341.59
1620,23976,32361.57
1621,23984,32381.54
1622,23988,32401.52
1623,23992,32421.50
1624,23996,32441.47
1625,24000,32461.45
1626,24004,32481.43
1627,24008,32501.40
1628,24016,32521.38
1629,24024,32541.35
1630,24020,32561.33
1631,24008,32581.31
1632,23980,32601.28
1633,23960,32621.26
1634,23948,32641.24
1635,23940,32661.21
1636,23944,32681.19
1637,23948,32701.16
1638,23960,32721.14
1639,23976,32741.12
1640,23980,32761.09
1641,23996,32781.07
1642,24000,32801.05
1643,24000,32821.02
1644,24000,32841.00
1645,24000,32860.97
1646,23992,32880.95
1647,23988,32900.93
1648,23988,32920.90
1649,23992,32940.88
1650,23996,32960.86
1651,24004,32980.83
1652,24000,33000.81
1653,24004,33020.78
1654,24012,33040.76
1655,24012,33060.74
1656,24016,33080.71
1657,24020,33100.69
1658,24020,33120.67
1659,24024,33140.64
1660,24032,33160.62
1661,24036,33180.59
1662,24036,33200.57
1663,24040,33220.55
1664,24028,33240.52
1665,24004,33260.50
1666,23984,33280.48
1667,23964,33300.45
1668,23952,33320.43
1669,23952,33340.40
1670,23956,33360.38
1671,23968,33380.36
1672,23972,33400.33
1673,23980,33420.31
1674,23992,33440.29
1675,24000,33460.26
1676,24004,33480.24
1677,24004,33500.22
1678,24004,33520.19
1679,24000,33540.17
1680,23996,33560.14
1681,23996,33580.12
1682,24000,33600.10
1683,24004,33620.07
1684,24008,33640.05
1685,24012,33660.03
1686,24020,33680.00
1687,24024,33699.98
1688,24028,33719.95
1689,24032,33739.93
1690,24036,33759.91
1691,24040,33779.88
1692,24048,33799.86
1693,24052,33819.84
1694,24048,33839.81
1695,24028,33859.79
1696,24000,33879.76
1697,23972,33899.74
1698,23948,33919.72
1699,23932,33939.69
1700,23924,33959.67
1701,23924,33979.65
1702,23924,33999.62
1703,23928,34019.60
1704,23936,34039.57
1705,23940,34059.55
1706,23944,34079.53
1707,23940,34099.50
1708,23932,34119.48
1709,23932,34139.46
1710,23928,34159.43
1711,23920,34179.41
1712,23920,34199.38
1713,23920,34219.36
1714,23920,34239.34
1715,23924,34259.31
1716,23928,34279.29
1717,23932,34299.27
1718,23940,34319.24
1719,23944,34339.22
1720,23944,34359.20
1721,23948,34379.17
1722,23952,34399.15
1723,23944,34419.12
1724,23920,34439.10
1725,23884,34459.08
1726,23848,34479.05
1727,23816,34499.03
1728,23800,34519.01
1729,23788,34538.98
1730,23780,34558.96
1731,23780,34578.93
1732,23780,34598.91
1733,23784,34618.89
1734,23788,34638.86
1735,23788,34658.84
1736,23788,34678.82
1737,23784,34698.79
1738,23780,34718.77
1739,23776,34738.74
1740,23772,34758.72
1741,23768,34778.70
1742,23768,34798.67
1743,23768,34818.65
1744,23768,34838.63
1745,23772,34858.60
1746,23772,34878.58
1747,23776,34898.55
1748,23784,34918.53
1749,23788,34938.51
1750,23792,34958.48
1751,23800,34978.46
1752,23804,34998.44
1753,23788,35018.41
1754,23752,35038.39
1755,23704,35058.36
1756,23656,35078.34
1757,23620,35098.32
1758,23600,35118.29
1759,23592,35138.27
1760,23588,35158.25
1761,23592,35178.22
1762,23600,35198.20
1763,23608,35218.17
1764,23608,35238.15
1765,23608,35258.13
1766,23608,35278.10
1767,23604,35298.08
1768,23604,35318.06
1769,23600,35338.03
1770,23600,35358.01
1771,23596,35377.99
1772,23604,35397.96
1773,23608,35417.94
1774,23616,35437.91
1775,23620,35457.89
1776,23632,35477.87
1777,23640,35497.84
1778,23652,35517.82
1779,23664,35537.80
1780,23676,35557.77
1781,23688,35577.75
1782,23696,35597.72
1783,23708,35617.70
1784,23708,35637.68
1785,23692,35657.65
1786,23648,35677.63
1787,23592,35697.61
1788,23544,35717.58
1789,23504,35737.56
1790,23484,35757.53
1791,23484,35777.51
1792,23492,35797.49
1793,23500,35817.46
1794,23512,35837.44
1795,23528,35857.42
1796,23532,35877.39
1797,23544,35897.37
1798,23544,35917.34
1799,23544,35937.32
1800,23544,35957.30
1801,23544,35977.27
1802,23548,35997.25
1803,23552,36017.23
1804,23560,36037.20
1805,23568,36057.18
1806,23580,36077.15
1807,23592,36097.13
1808,23600,36117.11
1809,23616,36137.08
1810,23624,36157.06
1811,23640,36177.04
1812,23656,36197.01
1813,23668,36216.99
1814,23680,36236.96
1815,23692,36256.94
1816,23704,36276.92
1817,23712,36296.89
1818,23708,36316.87
1819,23688,36336.85
1820,23648,36356.82
1821,23596,36376.80
1822,23540,36396.78
1823,23516,36416.75
1824,23500,36436.73
1825,23496,36456.70
1826,23504,36476.68
1827,23512,36496.66
1828,23520,36516.63
1829,23532,36536.61
1830,23540,36556.59
1831,23548,36576.56
1832,23552,36596.54
1833,23548,36616.51
1834,23548,36636.49
1835,23552,36656.47
1836,23552,36676.44
1837,23556,36696.42
1838,23564,36716.40
1839,23572,36736.37
1840,23580,36756.35
1841,23596,36776.32
1842,23608,36796.30
1843,23620,36816.28
1844,23636,36836.25
1845,23648,36856.23
1846,23660,36876.21
1847,23672,36896.18
1848,23688,36916.16
1849,23696,36936.13
1850,23704,36956.11
1851,23720,36976.09
1852,23712,36996.06
1853,23680,37016.04
1854,23632,37036.02
1855,23576,37055.99
1856,23532,37075.97
1857,23500,37095.94
1858,23488,37115.92
1859,23488,37135.90
1860,23496,37155.87
1861,23508,37175.85
1862,23524,37195.83
1863,23540,37215.80
1864,23548,37235.78
1865,23556,37255.76
1866,23556,37275.73
1867,23552,37295.71
1868,23552,37315.68
1869,23548,37335.66
1870,23548,37355.64
1871,23548,37375.61
1872,23552,37395.59
1873,23560,37415.57
1874,23572,37435.54
1875,23584,37455.52
1876,23596,37475.49
1877,23608,37495.47
1878,23616,37515.45
1879,23628,37535.42
1880,23640,37555.40
1881,23652,37575.38
1882,23660,37595.35
1883,23668,37615.33
1884,23676,37635.30
1885,23668,37655.28
1886,23632,37675.26
1887,23576,37695.23
1888,23516,37715.21
1889,23472,37735.19
1890,23444,37755.16
1891,23436,37775.14
1892,23440,37795.11
1893,23452,37815.09
1894,23468,37835.07
1895,23484,37855.04
1896,23504,37875.02
1897,23512,37895.00
1898,23520,37914.97
1899,23520,37934.95
1900,23516,37954.92
1901,23516,37974.90
1902,23516,37994.88
1903,23516,38014.85
1904,23520,38034.83
1905,23524,38054.81
1906,23540,38074.78
1907,23548,38094.76
1908,23564,38114.73
1909,23576,38134.71
1910,23592,38154.69
1911,23600,38174.66
1912,23616,38194.64
1913,23624,38214.62
1914,23636,38234.59
1915,23648,38254.57
1916,23648,38274.55
1917,23632,38294.52
1918,23588,38314.50
1919,23516,38334.47
1920,23444,38354.45
1921,23400,38374.43
1922,23372,38394.40
1923,23360,38414.38
1924,23364,38434.36
1925,23372,38454.33
1926,23380,38474.31
1927,23396,38494.28
1928,23408,38514.26
1929,23420,38534.24
1930,23428,38554.21
1931,23436,38574.19
1932,23432,38594.17
1933,23432,38614.14
1934,23428,38634.12
1935,23432,38654.09
1936,23436,38674.07
1937,23448,38694.05
1938,23460,38714.02
1939,23472,38734.00
1940,23488,38753.98
1941,23508,38773.95
1942,23524,38793.93
1943,23540,38813.90
1944,23560,38833.88
1945,23564,38853.86
1946,23580,38873.83
1947,23588,38893.81
1948,23580,38913.79
1949,23536,38933.76
1950,23460,38953.74
1951,23384,38973.71
1952,23328,38993.69
1953,23288,39013.67
1954,23276,39033.64
1955,23276,39053.62
1956,23280,39073.60
1957,23292,39093.57
1958,23300,39113.55
1959,23312,39133.53
1960,23328,39153.50
1961,23336,39173.48
1962,23340,39193.45
1963,23340,39213.43
1964,23340,39233.41
1965,23340,39253.38
1966,23344,39273.36
1967,23352,39293.34
1968,23364,39313.31
1969,23372,39333.29
1970,23388,39353.26
1971,23408,39373.24
1972,23420,39393.22
1973,23440,39413.19
1974,23456,39433.17
1975,23476,39453.15
1976,23492,39473.12
1977,23512,39493.10
1978,23524,39513.07
1979,23544,39533.05
1980,23556,39553.03
1981,23572,39573.00
1982,23572,39592.98
1983,23532,39612.96
1984,23460,39632.93
1985,23376,39652.91
1986,23300,39672.88
1987,23248,39692.86
1988,23228,39712.84
1989,23216,39732.81
1990,23220,39752.79
1991,23224,39772.77
1992,23232,39792.74
1993,23244,39812.72
1994,23260,39832.69
1995,23272,39852.67
1996,23292,39872.65
1997,23300,39892.62
1998,23300,39912.60
1999,23300,39932.58
2000,23304,39952.55
2001,23308,39972.53
2002,23312,39992.50
2003,23328,40012.48
2004,23336,40032.46
2005,23360,40052.43
2006,23376,40072.41
2007,23392,40092.39
2008,23416,40112.36
2009,23432,40132.34
2010,23452,40152.32
2011,23464,40172.29
2012,23480,40192.27
2013,23496,40212.24
2014,23516,40232.22
2015,23532,40252.20
2016,23544,40272.17
2017,23564,40292.15
2018,23580,40312.13
2019,23592,40332.10
2020,23608,40352.08
2021,23624,40372.05
2022,23624,40392.03
2023,23584,40412.01
2024,23508,40431.98
2025,23416,40451.96
2026,23332,40471.94
2027,23272,40491.91
2028,23240,40511.89
2029,23232,40531.86
2030,23232,40551.84
2031,23232,40571.82
2032,23244,40591.79
2033,23252,40611.77
2034,23264,40631.75
2035,23280,40651.72
2036,23292,40671.70
2037,23296,40691.67
2038,23304,40711.65
2039,23304,40731.63
2040,23308,40751.60
2041,23308,40771.58
2042,23316,40791.56
2043,23328,40811.53
2044,23340,40831.51
2045,23356,40851.48
2046,23372,40871.46
2047,23388,40891.44
2048,23408,40911.41
2049,23420,40931.39
2050,23440,40951.37
2051,23460,40971.34
2052,23472,40991.32
2053,23484,41011.29
2054,23500,41031.27
2055,23512,41051.25
2056,23524,41071.22
2057,23544,41091.20
2058,23556,41111.18
2059,23572,41131.15
2060,23588,41151.13
2061,23604,41171.11
2062,23620,41191.08
2063,23636,41211.06
2064,23648,41231.03
2065,23660,41251.01
2066,23680,41270.99
2067,23688,41290.96
2068,23664,41310.94
2069,23604,41330.92
2070,23512,41350.89
2071,23416,41370.87
2072,23336,41390.84
2073,23284,41410.82
2074,23256,41430.80
2075,23248,41450.77
2076,23252,41470.75
2077,23260,41490.73
2078,23272,41510.70
2079,23292,41530.68
2080,23308,41550.65
2081,23320,41570.63
2082,23324,41590.61
2083,23324,41610.58
2084,23324,41630.56
2085,23324,41650.54
2086,23324,41670.51
2087,23324,41690.49
2088,23332,41710.46
2089,23340,41730.44
2090,23352,41750.42
2091,23372,41770.39
2092,23388,41790.37
2093,23412,41810.35
2094,23428,41830.32
2095,23444,41850.30
2096,23460,41870.27
2097,23476,41890.25
2098,23500,41910.23
2099,23512,41930.20
2100,23524,41950.18
2101,23540,41970.16
2102,23556,41990.13
2103,23572,42010.11
2104,23588,42030.09
2105,23600,42050.06
2106,23616,42070.04
2107,23628,42090.01
2108,23644,42109.99
2109,23660,42129.97
2110,23636,42149.94
2111,23580,42169.92
2112,23500,42189.90
2113,23412,42209.87
2114,23344,42229.85
2115,23296,42249.82
2116,23280,42269.80
2117,23276,42289.78
2118,23284,42309.75
2119,23300,42329.73
2120,23324,42349.71
2121,23344,42369.68
2122,23364,42389.66
2123,23372,42409.63
2124,23384,42429.61
2125,23384,42449.59
2126,23380,42469.56
2127,23380,42489.54
2128,23376,42509.52
2129,23380,42529.49
2130,23384,42549.47
2131,23396,42569.44
2132,23404,42589.42
2133,23420,42609.40
2134,23436,42629.37
2135,23460,42649.35
2136,23476,42669.33
2137,23500,42689.30
2138,23516,42709.28
2139,23528,42729.25
2140,23544,42749.23
2141,23560,42769.21
2142,23568,42789.18
2143,23588,42809.16
2144,23600,42829.14
2145,23616,42849.11
2146,23624,42869.09
2147,23592,42889.06
2148,23528,42909.04
2149,23444,42929.02
2150,23360,42948.99
2151,23292,42968.97
2152,23256,42988.95
2153,23240,43008.92
2154,23244,43028.90
2155,23260,43048.88
2156,23280,43068.85
2157,23304,43088.83
2158,23328,43108.80
2159,23348,43128.78
2160,23364,43148.76
2161,23368,43168.73
2162,23368,43188.71
2163,23364,43208.69
2164,23368,43228.66
2165,23368,43248.64
2166,23372,43268.61
2167,23380,43288.59
2168,23392,43308.57
2169,23408,43328.54
2170,23424,43348.52
2171,23440,43368.50
2172,23456,43388.47
2173,23476,43408.45
2174,23488,43428.42
2175,23504,43448.40
2176,23520,43468.38
2177,23536,43488.35
2178,23552,43508.33
2179,23548,43528.31
2180,23496,43548.28
2181,23416,43568.26
2182,23320,43588.23
2183,23236,43608.21
2184,23176,43628.19
2185,23144,43648.16
2186,23132,43668.14
2187,23136,43688.12
2188,23148,43708.09
2189,23168,43728.07
2190,23196,43748.04
2191,23220,43768.02
2192,23240,43788.00
2193,23256,43807.97
2194,23264,43827.95
2195,23260,43847.93
2196,23260,43867.90
2197,23260,43887.88
2198,23264,43907.86
2199,23272,43927.83
2200,23288,43947.81
2201,23300,43967.78
2202,23312,43987.76
2203,23328,44007.74
2204,23344,44027.71
2205,23368,44047.69
2206,23380,44067.67
2207,23400,44087.64
2208,23424,44107.62
2209,23440,44127.59
2210,23460,44147.57
2211,23436,44167.55
2212,23372,44187.52
2213,23272,44207.50
2214,23164,44227.48
2215,23076,44247.45
2216,23008,44267.43
2217,22972,44287.40
2218,22964,44307.38
2219,22972,44327.36
2220,22992,44347.33
2221,23012,44367.31
2222,23040,44387.29
2223,23064,44407.26
2224,23084,44427.24
2225,23100,44447.21
2226,23104,44467.19
2227,23108,44487.17
2228,23108,44507.14
2229,23116,44527.12
2230,23124,44547.10
2231,23136,44567.07
2232,23152,44587.05
2233,23172,44607.02
2234,23192,44627.00
2235,23216,44646.98
2236,23240,44666.95
2237,23264,44686.93
2238,23288,44706.91
2239,23312,44726.88
2240,23336,44746.86
2241,23360,44766.83
2242,23380,44786.81
2243,23380,44806.79
2244,23328,44826.76
2245,23236,44846.74
2246,23120,44866.72
2247,23016,44886.69
2248,22936,44906.67
2249,22896,44926.65
2250,22888,44946.62
2251,22904,44966.60
2252,22924,44986.57
2253,22952,45006.55
2254,22980,45026.53
2255,23012,45046.50
2256,23036,45066.48
2257,23052,45086.46
2258,23056,45106.43
2259,23064,45126.41
2260,23064,45146.38
2261,23072,45166.36
2262,23076,45186.34
2263,23092,45206.31
2264,23112,45226.29
2265,23132,45246.27
2266,23152,45266.24
2267,23176,45286.22
2268,23196,45306.19
2269,23224,45326.17
2270,23244,45346.15
2271,23272,45366.12
2272,23292,45386.10
2273,23316,45406.08
2274,23336,45426.05
2275,23356,45446.03
2276,23376,45466.00
2277,23384,45485.98
2278,23352,45505.96
2279,23268,45525.93
2280,23148,45545.91
2281,23028,45565.89
2282,22932,45585.86
2283,22868,45605.84
2284,22852,45625.81
2285,22856,45645.79
2286,22876,45665.77
2287,22900,45685.74
2288,22928,45705.72
2289,22960,45725.70
2290,22984,45745.67
2291,23004,45765.65
2292,23016,45785.62
2293,23020,45805.60
2294,23020,45825.58
2295,23024,45845.55
2296,23028,45865.53
2297,23036,45885.51
2298,23048,45905.48
2299,23064,45925.46
2300,23084,45945.44
2301,23104,45965.41
2302,23120,45985.39
2303,23140,46005.36
2304,23156,46025.34
2305,23180,46045.32
2306,23200,46065.29
2307,23228,46085.27
2308,23252,46105.25
2309,23272,46125.22
2310,23292,46145.20
2311,23312,46165.17
2312,23328,46185.15
2313,23344,46205.13
2314,23332,46225.10
2315,23272,46245.08
2316,23168,46265.06
2317,23044,46285.03
2318,22932,46305.01
2319,22856,46324.98
2320,22820,46344.96
2321,22816,46364.94
2322,22836,46384.91
2323,22860,46404.89
2324,22896,46424.87
2325,22928,46444.84
2326,22964,46464.82
2327,22988,46484.79
2328,23004,46504.77
2329,23008,46524.75
2330,23008,46544.72
2331,23008,46564.70
2332,23012,46584.68
2333,23016,46604.65
2334,23028,46624.63
2335,23040,46644.60
2336,23064,46664.58
2337,23088,46684.56
2338,23112,46704.53
2339,23140,46724.51
2340,23164,46744.49
2341,23192,46764.46
2342,23212,46784.44
2343,23236,46804.42
2344,23256,46824.39
2345,23280,46844.37
2346,23296,46864.34
2347,23308,46884.32
2348,23328,46904.30
2349,23332,46924.27
2350,23296,46944.25
2351,23216,46964.23
2352,23100,46984.20
2353,22988,47004.18
2354,22896,47024.15
2355,22844,47044.13
2356,22828,47064.11
2357,22844,47084.08
2358,22864,47104.06
2359,22904,47124.04
2360,22940,47144.01
2361,22980,47163.99
2362,23012,47183.96
2363,23036,47203.94
2364,23040,47223.92
2365,23044,47243.89
2366,23044,47263.87
2367,23044,47283.85
2368,23048,47303.82
2369,23052,47323.80
2370,23068,47343.77
2371,23088,47363.75
2372,23112,47383.73
2373,23136,47403.70
2374,23164,47423.68
2375,23188,47443.66
2376,23216,47463.63
2377,23240,47483.61
2378,23264,47503.58
2379,23284,47523.56
2380,23304,47543.54
2381,23320,47563.51
2382,23340,47583.49
2383,23356,47603.47
2384,23328,47623.44
2385,23252,47643.42
2386,23136,47663.39
2387,23004,47683.37
2388,22892,47703.35
2389,22824,47723.32
2390,22792,47743.30
2391,22788,47763.28
2392,22808,47783.25
2393,22836,47803.23
2394,22868,47823.21
2395,22904,47843.18
2396,22932,47863.16
2397,22952,47883.13
2398,22968,47903.11
2399,22972,47923.09
2400,22972,47943.06
2401,22968,47963.04
2402,22968,47983.02
2403,22976,48002.99
2404,22992,48022.97
2405,23012,48042.94
2406,23036,48062.92
2407,23060,48082.90
2408,23088,48102.87
2409,23112,48122.85
2410,23140,48142.83
2411,23168,48162.80
2412,23196,48182.78
2413,23216,48202.75
2414,23244,48222.73
2415,23268,48242.71
2416,23280,48262.68
2417,23248,48282.66
2418,23164,48302.64
2419,23044,48322.61
2420,22920,48342.59
2421,22816,48362.56
2422,22756,48382.54
2423,22728,48402.52
2424,22728,48422.49
2425,22748,48442.47
2426,22776,48462.45
2427,22808,48482.42
2428,22852,48502.40
2429,22880,48522.37
2430,22900,48542.35
2431,22908,48562.33
2432,22904,48582.30
2433,22892,48602.28
2434,22884,48622.26
2435,22876,48642.23
2436,22880,48662.21
2437,22896,48682.19
2438,22916,48702.16
2439,22940,48722.14
2440,22968,48742.11
2441,22996,48762.09
2442,23024,48782.07
2443,23056,48802.04
2444,23080,48822.02
2445,23104,48842.00
2446,23132,48861.97
2447,23148,48881.95
2448,23148,48901.92
2449,23088,48921.90
2450,22980,48941.88
2451,22844,48961.85
2452,22728,48981.83
2453,22648,49001.81
2454,22612,49021.78
2455,22608,49041.76
2456,22628,49061.73
2457,22656,49081.71
2458,22692,49101.69
2459,22732,49121.66
2460,22776,49141.64
2461,22804,49161.62
2462,22824,49181.59
2463,22832,49201.57
2464,22832,49221.54
2465,22824,49241.52
2466,22816,49261.50
2467,22800,49281.47
2468,22788,49301.45
2469,22780,49321.43
2470,22772,49341.40
2471,22772,49361.38
2472,22780,49381.35
2473,22784,49401.33
2474,22788,49421.31
2475,22800,49441.28
2476,22812,49461.26
2477,22820,49481.24
2478,22832,49501.21
2479,22844,49521.19
2480,22856,49541.16
2481,22868,49561.14
2482,22840,49581.12
2483,22752,49601.09
2484,22608,49621.07
2485,22460,49641.05
2486,22344,49661.02
2487,22268,49681.00
2488,22236,49700.98
2489,22240,49720.95
2490,22260,49740.93
2491,22288,49760.90
2492,22328,49780.88
2493,22376,49800.86
2494,22416,49820.83
2495,22448,49840.81
2496,22468,49860.79
2497,22476,49880.76
2498,22476,49900.74
2499,22484,49920.71
2500,22492,49940.69
2501,22512,49960.67
2502,22536,49980.64
2503,22568,50000.62
2504,22600,50020.60
2505,22628,50040.57
2506,22664,50060.55
2507,22700,50080.52
2508,22736,50100.50
2509,22768,50120.48
2510,22800,50140.45
2511,22832,50160.43
2512,22864,50180.41
2513,22892,50200.38
2514,22920,50220.36
2515,22948,50240.33
2516,22972,50260.31
2517,22996,50280.29
2518,22980,50300.26
2519,22904,50320.24
2520,22780,50340.22
2521,22644,50360.19
2522,22532,50380.17
2523,22460,50400.14
2524,22440,50420.12
2525,22448,50440.10
2526,22472,50460.07
2527,22508,50480.05
2528,22548,50500.03
2529,22588,50520.00
2530,22628,50539.98
2531,22660,50559.95
2532,22676,50579.93
2533,22684,50599.91
2534,22684,50619.88
2535,22684,50639.86
2536,22684,50659.84
2537,22696,50679.81
2538,22708,50699.79
2539,22728,50719.77
2540,22760,50739.74
2541,22792,50759.72
2542,22824,50779.69
2543,22852,50799.67
2544,22884,50819.65
2545,22912,50839.62
2546,22940,50859.60
2547,22976,50879.58
2548,23000,50899.55
2549,23028,50919.53
2550,23052,50939.50
2551,23076,50959.48
2552,23104,50979.46
2553,23124,50999.43
2554,23112,51019.41
2555,23048,51039.39
2556,22940,51059.36
2557,22820,51079.34
2558,22720,51099.31
2559,22656,51119.29
2560,22636,51139.27
2561,22640,51159.24
2562,22664,51179.22
2563,22704,51199.20
2564,22752,51219.17
2565,22800,51239.15
2566,22836,51259.12
2567,22868,51279.10
2568,22880,51299.08
2569,22884,51319.05
2570,22880,51339.03
2571,22876,51359.01
2572,22876,51378.98
2573,22888,51398.96
2574,22900,51418.93
2575,22920,51438.91
2576,22940,51458.89
2577,22964,51478.86
2578,22992,51498.84
2579,23020,51518.82
2580,23048,51538.79
2581,23072,51558.77
2582,23100,51578.75
2583,23124,51598.72
2584,23148,51618.70
2585,23172,51638.67
2586,23200,51658.65
2587,23216,51678.63
2588,23196,51698.60
2589,23128,51718.58
2590,23028,51738.56
2591,22924,51758.53
2592,22836,51778.51
2593,22784,51798.48
2594,22764,51818.46
2595,22776,51838.44
2596,22800,51858.41
2597,22840,51878.39
2598,22880,51898.37
2599,22920,51918.34
2600,22960,51938.32
2601,22976,51958.29
2602,22988,51978.27
2603,22988,51998.25
2604,22984,52018.22
2605,22980,52038.20
2606,22980,52058.18
2607,22988,52078.15
2608,23004,52098.13
2609,23020,52118.10
2610,23044,52138.08
2611,23064,52158.06
2612,23084,52178.03
2613,23112,52198.01
2614,23136,52217.99
2615,23156,52237.96
2616,23168,52257.94
2617,23192,52277.91
2618,23212,52297.89
2619,23224,52317.87
2620,23204,52337.84
2621,23140,52357.82
2622,23040,52377.80
2623,22928,52397.77
2624,22836,52417.75
2625,22772,52437.72
2626,22744,52457.70
2627,22748,52477.68
2628,22772,52497.65
2629,22808,52517.63
2630,22848,52537.61
2631,22892,52557.58
2632,22924,52577.56
2633,22948,52597.54
2634,22960,52617.51
2635,22964,52637.49
2636,22960,52657.46
2637,22956,52677.44
2638,22956,52697.42
2639,22956,52717.39
2640,22964,52737.37
2641,22980,52757.35
2642,23004,52777.32
2643,23020,52797.30
2644,23044,52817.27
2645,23068,52837.25
2646,23092,52857.23
2647,23116,52877.20
2648,23140,52897.18
2649,23160,52917.16
2650,23180,52937.13
2651,23188,52957.11
2652,23136,52977.08
2653,23036,52997.06
2654,22916,53017.04
2655,22792,53037.01
2656,22700,53056.99
2657,22656,53076.97
2658,22644,53096.94
2659,22660,53116.92
2660,22688,53136.89
2661,22724,53156.87
2662,22760,53176.85
2663,22800,53196.82
2664,22832,53216.80
2665,22852,53236.78
2666,22864,53256.75
2667,22868,53276.73
2668,22860,53296.70
2669,22864,53316.68
2670,22864,53336.66
2671,22876,53356.63
2672,22892,53376.61
2673,22916,53396.59
2674,22940,53416.56
2675,22972,53436.54
2676,22996,53456.52
2677,23024,53476.49
2678,23052,53496.47
2679,23076,53516.44
2680,23096,53536.42
2681,23120,53556.40
2682,23144,53576.37
2683,23164,53596.35
2684,23164,53616.33
2685,23104,53636.30
2686,22996,53656.28
2687,22856,53676.25
2688,22736,53696.23
2689,22652,53716.21
2690,22608,53736.18
2691,22600,53756.16
2692,22612,53776.14
2693,22636,53796.11
2694,22668,53816.09
2695,22696,53836.06
2696,22728,53856.04
2697,22756,53876.02
2698,22776,53895.99
2699,22784,53915.97
2700,22788,53935.95
2701,22792,53955.92
2702,22788,53975.90
2703,22796,53995.87
2704,22804,54015.85
2705,22824,54035.83
2706,22840,54055.80
2707,22864,54075.78
2708,22888,54095.76
2709,22916,54115.73
2710,22940,54135.71
2711,22964,54155.68
2712,22996,54175.66
2713,23020,54195.64
2714,23048,54215.61
2715,23076,54235.59
2716,23088,54255.57
2717,23068,54275.54
2718,22988,54295.52
2719,22872,54315.49
2720,22740,54335.47
2721,22640,54355.45
2722,22580,54375.42
2723,22556,54395.40
2724,22564,54415.38
2725,22584,54435.35
2726,22620,54455.33
2727,22660,54475.31
2728,22700,54495.28
2729,22736,54515.26
2730,22760,54535.23
2731,22776,54555.21
2732,22788,54575.19
2733,22800,54595.16
2734,22792,54615.14
2735,22804,54635.12
2736,22816,54655.09
2737,22832,54675.07
2738,22852,54695.04
2739,22876,54715.02
2740,22900,54735.00
2741,22924,54754.97
2742,22952,54774.95
2743,22980,54794.93
2744,23004,54814.90
2745,23032,54834.88
2746,23056,54854.85
2747,23076,54874.83
2748,23076,54894.81
2749,23016,54914.78
2750,22912,54934.76
2751,22788,54954.74
2752,22680,54974.71
2753,22612,54994.69
2754,22584,55014.66
2755,22588,55034.64
2756,22612,55054.62
2757,22644,55074.59
2758,22684,55094.57
2759,22728,55114.55
2760,22764,55134.52
2761,22788,55154.50
2762,22808,55174.47
2763,22816,55194.45
2764,22816,55214.43
2765,22816,55234.40
2766,22824,55254.38
2767,22832,55274.36
2768,22844,55294.33
2769,22860,55314.31
2770,22884,55334.29
2771,22908,55354.26
2772,22932,55374.24
2773,22960,55394.21
2774,22988,55414.19
2775,23016,55434.17
2776,23044,55454.14
2777,23076,55474.12
2778,23080,55494.10
2779,23036,55514.07
2780,22936,55534.05
2781,22824,55554.02
2782,22724,55574.00
2783,22656,55593.98
2784,22628,55613.95
2785,22624,55633.93
2786,22648,55653.91
2787,22684,55673.88
2788,22728,55693.86
2789,22776,55713.83
2790,22816,55733.81
2791,22844,55753.79
2792,22856,55773.76
2793,22864,55793.74
2794,22860,55813.72
2795,22856,55833.69
2796,22852,55853.67
2797,22856,55873.64
2798,22872,55893.62
2799,22888,55913.60
2800,22908,55933.57
2801,22932,55953.55
2802,22960,55973.53
2803,22984,55993.50
2804,23012,56013.48
2805,23040,56033.45
2806,23064,56053.43
2807,23088,56073.41
2808,23068,56093.38
2809,22996,56113.36
2810,22888,56133.34
2811,22780,56153.31
2812,22692,56173.29
2813,22644,56193.26
2814,22632,56213.24
2815,22648,56233.22
2816,22680,56253.19
2817,22724,56273.17
2818,22772,56293.15
2819,22816,56313.12
2820,22852,56333.10
2821,22872,56353.08
2822,22880,56373.05
2823,22888,56393.03
2824,22884,56413.00
2825,22884,56432.98
2826,22884,56452.96
2827,22896,56472.93
2828,22912,56492.91
2829,22928,56512.89
2830,22956,56532.86
2831,22980,56552.84
2832,23008,56572.81
2833,23032,56592.79
2834,23056,56612.77
2835,23084,56632.74
2836,23108,56652.72
2837,23132,56672.70
2838,23132,56692.67
2839,23076,56712.65
2840,22968,56732.62
2841,22836,56752.60
2842,22716,56772.58
2843,22628,56792.55
2844,22584,56812.53
2845,22580,56832.51
2846,22608,56852.48
2847,22644,56872.46
2848,22688,56892.43
2849,22732,56912.41
2850,22772,56932.39
2851,22804,56952.36
2852,22820,56972.34
2853,22828,56992.32
2854,22824,57012.29
2855,22824,57032.27
2856,22828,57052.24
2857,22832,57072.22
2858,22848,57092.20
2859,22868,57112.17
2860,22892,57132.15
2861,22920,57152.13
2862,22948,57172.10
2863,22976,57192.08
2864,23008,57212.05
2865,23036,57232.03
2866,23064,57252.01
2867,23092,57271.98
2868,23120,57291.96
2869,23144,57311.94
2870,23148,57331.91
2871,23084,57351.89
2872,22968,57371.87
2873,22824,57391.84
2874,22692,57411.82
2875,22600,57431.79
2876,22560,57451.77
2877,22560,57471.75
2878,22580,57491.72
2879,22612,57511.70
2880,22656,57531.68
2881,22696,57551.65
2882,22736,57571.63
2883,22768,57591.60
2884,22788,57611.58
2885,22796,57631.56
2886,22796,57651.53
2887,22792,57671.51
2888,22792,57691.49
2889,22800,57711.46
2890,22812,57731.44
2891,22836,57751.41
2892,22856,57771.39
2893,22884,57791.37
2894,22912,57811.34
2895,22940,57831.32
2896,22964,57851.30
2897,22996,57871.27
2898,23020,57891.25
2899,23052,57911.22
2900,23080,57931.20
2901,23104,57951.18
2902,23128,57971.15
2903,23156,57991.13
2904,23176,58011.11
2905,23164,58031.08
2906,23084,58051.06
2907,22952,58071.03
2908,22804,58091.01
2909,22676,58110.99
2910,22592,58130.96
2911,22560,58150.94
2912,22564,58170.92
2913,22584,58190.89
2914,22624,58210.87
2915,22664,58230.85
2916,22708,58250.82
2917,22748,58270.80
2918,22780,58290.77
2919,22796,58310.75
2920,22804,58330.73
2921,22808,58350.70
2922,22808,58370.68
2923,22808,58390.66
2924,22820,58410.63
2925,22836,58430.61
2926,22852,58450.58
2927,22876,58470.56
2928,22904,58490.54
2929,22928,58510.51
2930,22956,58530.49
2931,22988,58550.47
2932,23012,58570.44
2933,23040,58590.42
2934,23072,58610.39
2935,23096,58630.37
2936,23128,58650.35
2937,23152,58670.32
2938,23176,58690.30
2939,23196,58710.28
2940,23220,58730.25
2941,23212,58750.23
2942,23152,58770.20
2943,23040,58790.18
2944,22896,58810.16
2945,22764,58830.13
2946,22668,58850.11
2947,22620,58870.09
2948,22616,58890.06
2949,22632,58910.04
2950,22668,58930.01
2951,22712,58949.99
2952,22760,58969.97
2953,22812,58989.94
2954,22844,59009.92
2955,22864,59029.90
2956,22876,59049.87
2957,22880,59069.85
2958,22876,59089.82
2959,22880,59109.80
2960,22884,59129.78
2961,22892,59149.75
2962,22912,59169.73
2963,22932,59189.71
2964,22960,59209.68
2965,22988,59229.66
2966,23016,59249.64
2967,23048,59269.61
2968,23072,59289.59
2969,23104,59309.56
2970,23128,59329.54
2971,23152,59349.52
2972,23176,59369.49
2973,23196,59389.47
2974,23220,59409.45
2975,23244,59429.42
2976,23260,59449.40
2977,23280,59469.37
2978,23272,59489.35
2979,23204,59509.33
2980,23088,59529.30
2981,22952,59549.28
2982,22828,59569.26
2983,22740,59589.23
2984,22700,59609.21
2985,22696,59629.18
2986,22720,59649.16
2987,22760,59669.14
2988,22804,59689.11
2989,22856,59709.09
2990,22896,59729.07
2991,22928,59749.04
2992,22948,59769.02
2993,22956,59788.99
2994,22952,59808.97
2995,22948,59828.95
2996,22944,59848.92
2997,22948,59868.90
2998,22964,59888.88
2999,22980,59908.85
