Sample_Index,IR_Value,Timestamp_ms
0,20248,0.00
1,20372,19.97
2,20524,39.95
3,20836,59.92
4,21208,79.89
5,21628,99.87
6,22100,119.84
7,22564,139.81
8,22816,159.79
9,22948,179.76
10,23020,199.73
11,23056,219.71
12,23092,239.68
13,23132,259.65
14,23192,279.63
15,23256,299.60
16,23328,319.57
17,23404,339.55
18,23468,359.52
19,23500,379.49
20,23524,399.47
21,23528,419.44
22,23512,439.41
23,23496,459.39
24,23480,479.36
25,23460,499.33
26,23448,519.31
27,23444,539.28
28,23452,559.25
29,23468,579.23
30,23488,599.20
31,23500,619.17
32,23520,639.15
33,23536,659.12
34,23560,679.09
35,23576,699.06
36,23596,719.04
37,23612,739.01
38,23620,758.98
39,23632,778.96
40,23620,798.93
41,23556,818.90
42,23444,838.88
43,23304,858.85
44,23172,878.82
45,23080,898.80
46,23028,918.77
47,23004,938.74
48,23004,958.72
49,23020,978.69
50,23056,998.66
51,23088,1018.64
52,23108,1038.61
53,23116,1058.58
54,23120,1078.56
55,23104,1098.53
56,23076,1118.50
57,23048,1138.48
58,23028,1158.45
59,23016,1178.42
60,23008,1198.40
61,23012,1218.37
62,23020,1238.34
63,23020,1258.32
64,23028,1278.29
65,23040,1298.26
66,23060,1318.24
67,23096,1338.21
68,23128,1358.18
69,23156,1378.16
70,23188,1398.13
71,23224,1418.10
72,23228,1438.08
73,23180,1458.05
74,23072,1478.02
75,22952,1498.00
76,22848,1517.97
77,22776,1537.94
78,22744,1557.92
79,22724,1577.89
80,22728,1597.86
81,22752,1617.84
82,22792,1637.81
83,22836,1657.78
84,22868,1677.76
85,22892,1697.73
86,22896,1717.70
87,22876,1737.68
88,22860,1757.65
89,22848,1777.62
90,22820,1797.60
91,22816,1817.57
92,22816,1837.54
93,22828,1857.52
94,22848,1877.49
95,22872,1897.46
96,22896,1917.44
97,22920,1937.41
98,22944,1957.38
99,22960,1977.36
100,22980,1997.33
101,23004,2017.30
102,23008,2037.27
103,22960,2057.25
104,22868,2077.22
105,22740,2097.19
106,22632,2117.17
107,22560,2137.14
108,22536,2157.11
109,22548,2177.09
110,22572,2197.06
111,22616,2217.03
112,22656,2237.01
113,22700,2256.98
114,22740,2276.95
115,22764,2296.93
116,22772,2316.90
117,22776,2336.87
118,22768,2356.85
119,22764,2376.82
120,22768,2396.79
121,22776,2416.77
122,22788,2436.74
123,22812,2456.71
124,22836,2476.69
125,22860,2496.66
126,22884,2516.63
127,22904,2536.61
128,22928,2556.58
129,22948,2576.55
130,22972,2596.53
131,22996,2616.50
132,23024,2636.47
133,23044,2656.45
134,23068,2676.42
135,23080,2696.39
136,23096,2716.37
137,23108,2736.34
138,23104,2756.31
139,23044,2776.29
140,22928,2796.26
141,22788,2816.23
142,22664,2836.21
143,22584,2856.18
144,22556,2876.15
145,22560,2896.13
146,22580,2916.10
147,22604,2936.07
148,22628,2956.05
149,22664,2976.02
150,22696,2995.99
151,22724,3015.97
152,22740,3035.94
153,22748,3055.91
154,22748,3075.89
155,22748,3095.86
156,22760,3115.83
157,22768,3135.81
158,22792,3155.78
159,22812,3175.75
160,22832,3195.73
161,22860,3215.70
162,22884,3235.67
163,22912,3255.65
164,22936,3275.62
165,22968,3295.59
166,22996,3315.57
167,23032,3335.54
168,23056,3355.51
169,23088,3375.48
170,23112,3395.46
171,23132,3415.43
172,23160,3435.40
173,23188,3455.38
174,23216,3475.35
175,23244,3495.32
176,23280,3515.30
177,23284,3535.27
178,23260,3555.24
179,23196,3575.22
180,23104,3595.19
181,23020,3615.16
182,22952,3635.14
183,22924,3655.11
184,22916,3675.08
185,22924,3695.06
186,22944,3715.03
187,22972,3735.00
188,22996,3754.98
189,23020,3774.95
190,23044,3794.92
191,23056,3814.90
192,23076,3834.87
193,23088,3854.84
194,23096,3874.82
195,23108,3894.79
196,23124,3914.76
197,23144,3934.74
198,23168,3954.71
199,23196,3974.68
200,23224,3994.66
201,23252,4014.63
202,23280,4034.60
203,23312,4054.58
204,23340,4074.55
205,23372,4094.52
206,23400,4114.50
207,23424,4134.47
208,23452,4154.44
209,23480,4174.42
210,23504,4194.39
211,23532,4214.36
212,23556,4234.34
213,23580,4254.31
214,23604,4274.28
215,23628,4294.26
216,23648,4314.23
217,23628,4334.20
218,23592,4354.18
219,23552,4374.15
220,23512,4394.12
221,23492,4414.10
222,23484,4434.07
223,23488,4454.04
224,23504,4474.02
225,23516,4493.99
226,23536,4513.96
227,23552,4533.94
228,23572,4553.91
229,23588,4573.88
230,23596,4593.86
231,23608,4613.83
232,23616,4633.80
233,23624,4653.78
234,23636,4673.75
235,23648,4693.72
236,23660,4713.69
237,23676,4733.67
238,23696,4753.64
239,23716,4773.61
240,23736,4793.59
241,23760,4813.56
242,23776,4833.53
243,23796,4853.51
244,23816,4873.48
245,23828,4893.45
246,23848,4913.43
247,23868,4933.40
248,23880,4953.37
249,23900,4973.35
250,23920,4993.32
251,23936,5013.29
252,23952,5033.27
253,23968,5053.24
254,23980,5073.21
255,23984,5093.19
256,23972,5113.16
257,23952,5133.13
258,23924,5153.11
259,23912,5173.08
260,23904,5193.05
261,23912,5213.03
262,23920,5233.00
263,23932,5252.97
264,23948,5272.95
265,23960,5292.92
266,23976,5312.89
267,23988,5332.87
268,24004,5352.84
269,24012,5372.81
270,24020,5392.79
271,24024,5412.76
272,24036,5432.73
273,24044,5452.71
274,24056,5472.68
275,24068,5492.65
276,24084,5512.63
277,24100,5532.60
278,24112,5552.57
279,24128,5572.55
280,24140,5592.52
281,24152,5612.49
282,24168,5632.47
283,24176,5652.44
284,24196,5672.41
285,24208,5692.39
286,24220,5712.36
287,24232,5732.33
288,24244,5752.31
289,24260,5772.28
290,24272,5792.25
291,24276,5812.23
292,24288,5832.20
293,24296,5852.17
294,24308,5872.15
295,24316,5892.12
296,24320,5912.09
297,24312,5932.07
298,24296,5952.04
299,24292,5972.01
300,24288,5991.99
301,24288,6011.96
302,24300,6031.93
303,24316,6051.90
304,24328,6071.88
305,24340,6091.85
306,24352,6111.82
307,24368,6131.80
308,24376,6151.77
309,24384,6171.74
310,24392,6191.72
311,24396,6211.69
312,24400,6231.66
313,24412,6251.64
314,24416,6271.61
315,24428,6291.58
316,24436,6311.56
317,24452,6331.53
318,24460,6351.50
319,24472,6371.48
320,24476,6391.45
321,24488,6411.42
322,24496,6431.40
323,24508,6451.37
324,24516,6471.34
325,24528,6491.32
326,24532,6511.29
327,24540,6531.26
328,24548,6551.24
329,24548,6571.21
330,24552,6591.18
331,24560,6611.16
332,24568,6631.13
333,24572,6651.10
334,24584,6671.08
335,24588,6691.05
336,24584,6711.02
337,24576,6731.00
338,24564,6750.97
339,24560,6770.94
340,24564,6790.92
341,24572,6810.89
342,24584,6830.86
343,24600,6850.84
344,24612,6870.81
345,24624,6890.78
346,24636,6910.76
347,24640,6930.73
348,24644,6950.70
349,24652,6970.68
350,24652,6990.65
351,24656,7010.62
352,24664,7030.60
353,24664,7050.57
354,24672,7070.54
355,24680,7090.52
356,24688,7110.49
357,24692,7130.46
358,24696,7150.44
359,24704,7170.41
360,24712,7190.38
361,24716,7210.36
362,24724,7230.33
363,24732,7250.30
364,24736,7270.28
365,24740,7290.25
366,24740,7310.22
367,24744,7330.20
368,24748,7350.17
369,24752,7370.14
370,24752,7390.11
371,24756,7410.09
372,24744,7430.06
373,24740,7450.03
374,24732,7470.01
375,24728,7489.98
376,24736,7509.95
377,24740,7529.93
378,24748,7549.90
379,24756,7569.87
380,24768,7589.85
381,24776,7609.82
382,24784,7629.79
383,24788,7649.77
384,24792,7669.74
385,24792,7689.71
386,24796,7709.69
387,24796,7729.66
388,24800,7749.63
389,24804,7769.61
390,24808,7789.58
391,24816,7809.55
392,24824,7829.53
393,24828,7849.50
394,24836,7869.47
395,24840,7889.45
396,24848,7909.42
397,24852,7929.39
398,24852,7949.37
399,24856,7969.34
400,24864,7989.31
401,24864,8009.29
402,24868,8029.26
403,24872,8049.23
404,24872,8069.21
405,24872,8089.18
406,24876,8109.15
407,24876,8129.13
408,24880,8149.10
409,24876,8169.07
410,24860,8189.05
411,24852,8209.02
412,24848,8228.99
413,24848,8248.97
414,24852,8268.94
415,24860,8288.91
416,24868,8308.89
417,24876,8328.86
418,24884,8348.83
419,24892,8368.81
420,24896,8388.78
421,24904,8408.75
422,24904,8428.73
423,24904,8448.70
424,24904,8468.67
425,24904,8488.65
426,24908,8508.62
427,24916,8528.59
428,24916,8548.57
429,24924,8568.54
430,24928,8588.51
431,24932,8608.49
432,24936,8628.46
433,24940,8648.43
434,24944,8668.41
435,24948,8688.38
436,24952,8708.35
437,24956,8728.32
438,24960,8748.30
439,24960,8768.27
440,24968,8788.24
441,24964,8808.22
442,24964,8828.19
443,24964,8848.16
444,24964,8868.14
445,24964,8888.11
446,24952,8908.08
447,24944,8928.06
448,24936,8948.03
449,24936,8968.00
450,24936,8987.98
451,24940,9007.95
452,24944,9027.92
453,24956,9047.90
454,24960,9067.87
455,24968,9087.84
456,24976,9107.82
457,24976,9127.79
458,24976,9147.76
459,24976,9167.74
460,24980,9187.71
461,24976,9207.68
462,24980,9227.66
463,24984,9247.63
464,24984,9267.60
465,24992,9287.58
466,24996,9307.55
467,25000,9327.52
468,25004,9347.50
469,25004,9367.47
470,25008,9387.44
471,25008,9407.42
472,25016,9427.39
473,25016,9447.36
474,25024,9467.34
475,25024,9487.31
476,25028,9507.28
477,25028,9527.26
478,25024,9547.23
479,25008,9567.20
480,24992,9587.18
481,24980,9607.15
482,24980,9627.12
483,24976,9647.10
484,24984,9667.07
485,24984,9687.04
486,24992,9707.02
487,24996,9726.99
488,24996,9746.96
489,25000,9766.94
490,24996,9786.91
491,25000,9806.88
492,24996,9826.86
493,24996,9846.83
494,24992,9866.80
495,24996,9886.78
496,24996,9906.75
497,24996,9926.72
498,24996,9946.70
499,25000,9966.67
500,25000,9986.64
501,25004,10006.62
502,25008,10026.59
503,25012,10046.56
504,25016,10066.54
505,25016,10086.51
506,25016,10106.48
507,25016,10126.45
508,25020,10146.43
509,25024,10166.40
510,25016,10186.37
511,25012,10206.35
512,25000,10226.32
513,24980,10246.29
514,24960,10266.27
515,24948,10286.24
516,24936,10306.21
517,24932,10326.19
518,24932,10346.16
519,24928,10366.13
520,24932,10386.11
521,24932,10406.08
522,24936,10426.05
523,24928,10446.03
524,24920,10466.00
525,24920,10485.97
526,24908,10505.95
527,24904,10525.92
528,24900,10545.89
529,24900,10565.87
530,24904,10585.84
531,24904,10605.81
532,24904,10625.79
533,24900,10645.76
534,24908,10665.73
535,24912,10685.71
536,24908,10705.68
537,24916,10725.65
538,24912,10745.63
539,24920,10765.60
540,24920,10785.57
541,24916,10805.55
542,24920,10825.52
543,24920,10845.49
544,24916,10865.47
545,24904,10885.44
546,24880,10905.41
547,24856,10925.39
548,24836,10945.36
549,24816,10965.33
550,24812,10985.31
551,24808,11005.28
552,24804,11025.25
553,24804,11045.23
554,24804,11065.20
555,24804,11085.17
556,24804,11105.15
557,24804,11125.12
558,24796,11145.09
559,24788,11165.07
560,24780,11185.04
561,24768,11205.01
562,24768,11224.99
563,24764,11244.96
564,24768,11264.93
565,24768,11284.91
566,24768,11304.88
567,24768,11324.85
568,24772,11344.83
569,24772,11364.80
570,24776,11384.77
571,24776,11404.75
572,24780,11424.72
573,24784,11444.69
574,24784,11464.66
575,24784,11484.64
576,24772,11504.61
577,24752,11524.58
578,24724,11544.56
579,24700,11564.53
580,24684,11584.50
581,24672,11604.48
582,24672,11624.45
583,24672,11644.42
584,24672,11664.40
585,24676,11684.37
586,24676,11704.34
587,24680,11724.32
588,24676,11744.29
589,24668,11764.26
590,24656,11784.24
591,24648,11804.21
592,24636,11824.18
593,24632,11844.16
594,24632,11864.13
595,24628,11884.10
596,24628,11904.08
597,24624,11924.05
598,24624,11944.02
599,24628,11964.00
600,24632,11983.97
601,24636,12003.94
602,24632,12023.92
603,24640,12043.89
604,24644,12063.86
605,24636,12083.84
606,24616,12103.81
607,24588,12123.78
608,24560,12143.76
609,24536,12163.73
610,24528,12183.70
611,24524,12203.68
612,24524,12223.65
613,24528,12243.62
614,24532,12263.60
615,24536,12283.57
616,24540,12303.54
617,24536,12323.52
618,24536,12343.49
619,24532,12363.46
620,24524,12383.44
621,24520,12403.41
622,24508,12423.38
623,24508,12443.36
624,24504,12463.33
625,24504,12483.30
626,24504,12503.28
627,24504,12523.25
628,24508,12543.22
629,24512,12563.20
630,24512,12583.17
631,24512,12603.14
632,24512,12623.12
633,24516,12643.09
634,24520,12663.06
635,24520,12683.04
636,24508,12703.01
637,24484,12722.98
638,24452,12742.96
639,24424,12762.93
640,24396,12782.90
641,24380,12802.87
642,24376,12822.85
643,24376,12842.82
644,24376,12862.79
645,24384,12882.77
646,24388,12902.74
647,24392,12922.71
648,24392,12942.69
649,24396,12962.66
650,24388,12982.63
651,24380,13002.61
652,24376,13022.58
653,24372,13042.55
654,24368,13062.53
655,24372,13082.50
656,24376,13102.47
657,24380,13122.45
658,24384,13142.42
659,24384,13162.39
660,24384,13182.37
661,24384,13202.34
662,24388,13222.31
663,24388,13242.29
664,24392,13262.26
665,24392,13282.23
666,24396,13302.21
667,24404,13322.18
668,24400,13342.15
669,24384,13362.13
670,24356,13382.10
671,24320,13402.07
672,24280,13422.05
673,24256,13442.02
674,24240,13461.99
675,24236,13481.97
676,24236,13501.94
677,24240,13521.91
678,24244,13541.89
679,24248,13561.86
680,24252,13581.83
681,24252,13601.81
682,24252,13621.78
683,24244,13641.75
684,24240,13661.73
685,24236,13681.70
686,24232,13701.67
687,24228,13721.65
688,24228,13741.62
689,24232,13761.59
690,24236,13781.57
691,24240,13801.54
692,24248,13821.51
693,24252,13841.49
694,24256,13861.46
695,24260,13881.43
696,24268,13901.41
697,24268,13921.38
698,24272,13941.35
699,24272,13961.33
700,24276,13981.30
701,24272,14001.27
702,24260,14021.25
703,24236,14041.22
704,24204,14061.19
705,24164,14081.17
706,24136,14101.14
707,24116,14121.11
708,24108,14141.08
709,24112,14161.06
710,24116,14181.03
711,24124,14201.00
712,24132,14220.98
713,24136,14240.95
714,24140,14260.92
715,24136,14280.90
716,24128,14300.87
717,24124,14320.84
718,24120,14340.82
719,24116,14360.79
720,24124,14380.76
721,24124,14400.74
722,24128,14420.71
723,24132,14440.68
724,24136,14460.66
725,24140,14480.63
726,24144,14500.60
727,24148,14520.58
728,24156,14540.55
729,24160,14560.52
730,24172,14580.50
731,24172,14600.47
732,24176,14620.44
733,24184,14640.42
734,24192,14660.39
735,24192,14680.36
736,24192,14700.34
737,24180,14720.31
738,24152,14740.28
739,24116,14760.26
740,24072,14780.23
741,24036,14800.20
742,24016,14820.18
743,24008,14840.15
744,24008,14860.12
745,24004,14880.10
746,24008,14900.07
747,24016,14920.04
748,24020,14940.02
749,24024,14959.99
750,24020,14979.96
751,24016,14999.94
752,24008,15019.91
753,24004,15039.88
754,24000,15059.86
755,24004,15079.83
756,24004,15099.80
757,24008,15119.78
758,24012,15139.75
759,24024,15159.72
760,24028,15179.70
761,24036,15199.67
762,24044,15219.64
763,24044,15239.62
764,24052,15259.59
765,24060,15279.56
766,24072,15299.54
767,24076,15319.51
768,24084,15339.48
769,24092,15359.46
770,24092,15379.43
771,24100,15399.40
772,24104,15419.38
773,24112,15439.35
774,24112,15459.32
775,24120,15479.29
776,24128,15499.27
777,24128,15519.24
778,24104,15539.21
779,24064,15559.19
780,24012,15579.16
781,23964,15599.13
782,23928,15619.11
783,23904,15639.08
784,23896,15659.05
785,23896,15679.03
786,23896,15699.00
787,23896,15718.97
788,23900,15738.95
789,23904,15758.92
790,23904,15778.89
791,23896,15798.87
792,23892,15818.84
793,23880,15838.81
794,23872,15858.79
795,23872,15878.76
796,23868,15898.73
797,23868,15918.71
798,23872,15938.68
799,23872,15958.65
800,23880,15978.63
801,23888,15998.60
802,23896,16018.57
803,23904,16038.55
804,23912,16058.52
805,23920,16078.49
806,23924,16098.47
807,23932,16118.44
808,23936,16138.41
809,23944,16158.39
810,23948,16178.36
811,23952,16198.33
812,23960,16218.31
813,23964,16238.28
814,23976,16258.25
815,23980,16278.23
816,23988,16298.20
817,23996,16318.17
818,23992,16338.15
819,23968,16358.12
820,23936,16378.09
821,23892,16398.07
822,23852,16418.04
823,23824,16438.01
824,23808,16457.99
825,23800,16477.96
826,23804,16497.93
827,23808,16517.91
828,23816,16537.88
829,23828,16557.85
830,23832,16577.83
831,23836,16597.80
832,23832,16617.77
833,23828,16637.75
834,23820,16657.72
835,23808,16677.69
836,23808,16697.67
837,23808,16717.64
838,23812,16737.61
839,23824,16757.59
840,23824,16777.56
841,23836,16797.53
842,23844,16817.50
843,23852,16837.48
844,23856,16857.45
845,23868,16877.42
846,23872,16897.40
847,23880,16917.37
848,23892,16937.34
849,23900,16957.32
850,23908,16977.29
851,23916,16997.26
852,23924,17017.24
853,23936,17037.21
854,23944,17057.18
855,23952,17077.16
856,23968,17097.13
857,23964,17117.10
858,23940,17137.08
859,23900,17157.05
860,23856,17177.02
861,23812,17197.00
862,23784,17216.97
863,23764,17236.94
864,23756,17256.92
865,23756,17276.89
866,23764,17296.86
867,23772,17316.84
868,23788,17336.81
869,23792,17356.78
870,23796,17376.76
871,23796,17396.73
872,23788,17416.70
873,23788,17436.68
874,23784,17456.65
875,23784,17476.62
876,23784,17496.60
877,23788,17516.57
878,23796,17536.54
879,23804,17556.52
880,23808,17576.49
881,23816,17596.46
882,23824,17616.44
883,23836,17636.41
884,23848,17656.38
885,23860,17676.36
886,23868,17696.33
887,23876,17716.30
888,23888,17736.28
889,23900,17756.25
890,23904,17776.22
891,23920,17796.20
892,23928,17816.17
893,23940,17836.14
894,23952,17856.12
895,23964,17876.09
896,23960,17896.06
897,23940,17916.04
898,23904,17936.01
899,23856,17955.98
900,23812,17975.96
901,23780,17995.93
902,23768,18015.90
903,23756,18035.88
904,23760,18055.85
905,23764,18075.82
906,23768,18095.80
907,23780,18115.77
908,23788,18135.74
909,23792,18155.71
910,23796,18175.69
911,23792,18195.66
912,23792,18215.63
913,23784,18235.61
914,23784,18255.58
915,23788,18275.55
916,23788,18295.53
917,23792,18315.50
918,23800,18335.47
919,23804,18355.45
920,23816,18375.42
921,23828,18395.39
922,23840,18415.37
923,23852,18435.34
924,23864,18455.31
925,23868,18475.29
926,23880,18495.26
927,23892,18515.23
928,23904,18535.21
929,23916,18555.18
930,23928,18575.15
931,23940,18595.13
932,23932,18615.10
933,23912,18635.07
934,23876,18655.05
935,23836,18675.02
936,23792,18694.99
937,23760,18714.97
938,23752,18734.94
939,23752,18754.91
940,23752,18774.89
941,23768,18794.86
942,23776,18814.83
943,23784,18834.81
944,23796,18854.78
945,23796,18874.75
946,23796,18894.73
947,23792,18914.70
948,23784,18934.67
949,23784,18954.65
950,23780,18974.62
951,23784,18994.59
952,23788,19014.57
953,23796,19034.54
954,23804,19054.51
955,23812,19074.49
956,23820,19094.46
957,23828,19114.43
958,23840,19134.41
959,23848,19154.38
960,23860,19174.35
961,23872,19194.33
962,23884,19214.30
963,23892,19234.27
964,23896,19254.25
965,23880,19274.22
966,23848,19294.19
967,23800,19314.17
968,23756,19334.14
969,23716,19354.11
970,23684,19374.09
971,23676,19394.06
972,23676,19414.03
973,23684,19434.01
974,23696,19453.98
975,23712,19473.95
976,23720,19493.92
977,23732,19513.90
978,23740,19533.87
979,23740,19553.84
980,23740,19573.82
981,23736,19593.79
982,23732,19613.76
983,23732,19633.74
984,23740,19653.71
985,23744,19673.68
986,23752,19693.66
987,23768,19713.63
988,23776,19733.60
989,23784,19753.58
990,23800,19773.55
991,23808,19793.52
992,23820,19813.50
993,23828,19833.47
994,23836,19853.44
995,23848,19873.42
996,23856,19893.39
997,23868,19913.36
998,23872,19933.34
999,23860,19953.31
1000,23824,19973.28
1001,23764,19993.26
1002,23704,20013.23
1003,23652,20033.20
1004,23612,20053.18
1005,23596,20073.15
1006,23596,20093.12
1007,23596,20113.10
1008,23612,20133.07
1009,23624,20153.04
1010,23640,20173.02
1011,23652,20192.99
1012,23652,20212.96
1013,23652,20232.94
1014,23648,20252.91
1015,23640,20272.88
1016,23636,20292.86
1017,23636,20312.83
1018,23644,20332.80
1019,23648,20352.78
1020,23660,20372.75
1021,23668,20392.72
1022,23680,20412.70
1023,23692,20432.67
1024,23708,20452.64
1025,23720,20472.62
1026,23736,20492.59
1027,23748,20512.56
1028,23760,20532.54
1029,23772,20552.51
1030,23776,20572.48
1031,23756,20592.46
1032,23716,20612.43
1033,23660,20632.40
1034,23600,20652.38
1035,23552,20672.35
1036,23520,20692.32
1037,23508,20712.30
1038,23508,20732.27
1039,23516,20752.24
1040,23528,20772.22
1041,23548,20792.19
1042,23560,20812.16
1043,23576,20832.13
1044,23580,20852.11
1045,23584,20872.08
1046,23576,20892.05
1047,23572,20912.03
1048,23568,20932.00
1049,23564,20951.97
1050,23576,20971.95
1051,23580,20991.92
1052,23588,21011.89
1053,23600,21031.87
1054,23616,21051.84
1055,23628,21071.81
1056,23644,21091.79
1057,23664,21111.76
1058,23676,21131.73
1059,23688,21151.71
1060,23700,21171.68
1061,23704,21191.65
1062,23680,21211.63
1063,23632,21231.60
1064,23572,21251.57
1065,23508,21271.55
1066,23456,21291.52
1067,23424,21311.49
1068,23412,21331.47
1069,23412,21351.44
1070,23420,21371.41
1071,23436,21391.39
1072,23456,21411.36
1073,23472,21431.33
1074,23480,21451.31
1075,23480,21471.28
1076,23476,21491.25
1077,23468,21511.23
1078,23464,21531.20
1079,23460,21551.17
1080,23456,21571.15
1081,23464,21591.12
1082,23476,21611.09
1083,23488,21631.07
1084,23500,21651.04
1085,23516,21671.01
1086,23532,21690.99
1087,23552,21710.96
1088,23564,21730.93
1089,23584,21750.91
1090,23596,21770.88
1091,23608,21790.85
1092,23596,21810.83
1093,23556,21830.80
1094,23488,21850.77
1095,23408,21870.75
1096,23340,21890.72
1097,23292,21910.69
1098,23268,21930.67
1099,23264,21950.64
1100,23280,21970.61
1101,23292,21990.59
1102,23316,22010.56
1103,23332,22030.53
1104,23344,22050.51
1105,23356,22070.48
1106,23348,22090.45
1107,23340,22110.43
1108,23332,22130.40
1109,23320,22150.37
1110,23324,22170.34
1111,23328,22190.32
1112,23340,22210.29
1113,23352,22230.26
1114,23368,22250.24
1115,23384,22270.21
1116,23396,22290.18
1117,23412,22310.16
1118,23432,22330.13
1119,23448,22350.10
1120,23464,22370.08
1121,23484,22390.05
1122,23500,22410.02
1123,23488,22430.00
1124,23444,22449.97
1125,23372,22469.94
1126,23288,22489.92
1127,23224,22509.89
1128,23180,22529.86
1129,23164,22549.84
1130,23164,22569.81
1131,23176,22589.78
1132,23196,22609.76
1133,23216,22629.73
1134,23236,22649.70
1135,23252,22669.68
1136,23260,22689.65
1137,23264,22709.62
1138,23256,22729.60
1139,23248,22749.57
1140,23248,22769.54
1141,23244,22789.52
1142,23248,22809.49
1143,23252,22829.46
1144,23264,22849.44
1145,23276,22869.41
1146,23292,22889.38
1147,23308,22909.36
1148,23324,22929.33
1149,23344,22949.30
1150,23360,22969.28
1151,23372,22989.25
1152,23384,23009.22
1153,23400,23029.20
1154,23396,23049.17
1155,23368,23069.14
1156,23308,23089.12
1157,23224,23109.09
1158,23152,23129.06
1159,23104,23149.04
1160,23080,23169.01
1161,23072,23188.98
1162,23088,23208.96
1163,23108,23228.93
1164,23132,23248.90
1165,23156,23268.88
1166,23176,23288.85
1167,23188,23308.82
1168,23192,23328.80
1169,23184,23348.77
1170,23176,23368.74
1171,23168,23388.72
1172,23168,23408.69
1173,23172,23428.66
1174,23180,23448.64
1175,23192,23468.61
1176,23204,23488.58
1177,23220,23508.55
1178,23232,23528.53
1179,23244,23548.50
1180,23256,23568.47
1181,23268,23588.45
1182,23280,23608.42
1183,23300,23628.39
1184,23308,23648.37
1185,23316,23668.34
1186,23288,23688.31
1187,23228,23708.29
1188,23148,23728.26
1189,23068,23748.23
1190,23008,23768.21
1191,22976,23788.18
1192,22968,23808.15
1193,22980,23828.13
1194,23000,23848.10
1195,23024,23868.07
1196,23056,23888.05
1197,23076,23908.02
1198,23088,23927.99
1199,23092,23947.97
1200,23088,23967.94
1201,23076,23987.91
1202,23076,24007.89
1203,23072,24027.86
1204,23084,24047.83
1205,23092,24067.81
1206,23108,24087.78
1207,23124,24107.75
1208,23144,24127.73
1209,23160,24147.70
1210,23176,24167.67
1211,23196,24187.65
1212,23212,24207.62
1213,23228,24227.59
1214,23244,24247.57
1215,23260,24267.54
1216,23280,24287.51
1217,23296,24307.49
1218,23292,24327.46
1219,23256,24347.43
1220,23180,24367.41
1221,23088,24387.38
1222,22996,24407.35
1223,22932,24427.33
1224,22896,24447.30
1225,22888,24467.27
1226,22896,24487.25
1227,22920,24507.22
1228,22940,24527.19
1229,22964,24547.17
1230,22984,24567.14
1231,22996,24587.11
1232,23000,24607.09
1233,23000,24627.06
1234,22992,24647.03
1235,22988,24667.01
1236,22992,24686.98
1237,23000,24706.95
1238,23008,24726.93
1239,23024,24746.90
1240,23044,24766.87
1241,23060,24786.85
1242,23080,24806.82
1243,23108,24826.79
1244,23124,24846.76
1245,23144,24866.74
1246,23168,24886.71
1247,23184,24906.68
1248,23204,24926.66
1249,23220,24946.63
1250,23236,24966.60
1251,23256,24986.58
1252,23260,25006.55
1253,23232,25026.52
1254,23168,25046.50
1255,23076,25066.47
1256,22984,25086.44
1257,22916,25106.42
1258,22884,25126.39
1259,22872,25146.36
1260,22880,25166.34
1261,22896,25186.31
1262,22920,25206.28
1263,22948,25226.26
1264,22972,25246.23
1265,22984,25266.20
1266,22992,25286.18
1267,22988,25306.15
1268,22976,25326.12
1269,22972,25346.10
1270,22968,25366.07
1271,22976,25386.04
1272,22984,25406.02
1273,23004,25425.99
1274,23020,25445.96
1275,23040,25465.94
1276,23060,25485.91
1277,23080,25505.88
1278,23104,25525.86
1279,23120,25545.83
1280,23140,25565.80
1281,23160,25585.78
1282,23176,25605.75
1283,23192,25625.72
1284,23212,25645.70
1285,23216,25665.67
1286,23200,25685.64
1287,23140,25705.62
1288,23060,25725.59
1289,22976,25745.56
1290,22904,25765.54
1291,22872,25785.51
1292,22868,25805.48
1293,22872,25825.46
1294,22888,25845.43
1295,22916,25865.40
1296,22940,25885.38
1297,22964,25905.35
1298,22980,25925.32
1299,22980,25945.30
1300,22976,25965.27
1301,22960,25985.24
1302,22944,26005.22
1303,22940,26025.19
1304,22944,26045.16
1305,22952,26065.14
1306,22968,26085.11
1307,22980,26105.08
1308,23008,26125.06
1309,23028,26145.03
1310,23048,26165.00
1311,23068,26184.97
1312,23088,26204.95
1313,23104,26224.92
1314,23120,26244.89
1315,23140,26264.87
1316,23156,26284.84
1317,23172,26304.81
1318,23156,26324.79
1319,23100,26344.76
1320,23016,26364.73
1321,22928,26384.71
1322,22848,26404.68
1323,22800,26424.65
1324,22780,26444.63
1325,22784,26464.60
1326,22792,26484.57
1327,22820,26504.55
1328,22844,26524.52
1329,22876,26544.49
1330,22892,26564.47
1331,22900,26584.44
1332,22896,26604.41
1333,22888,26624.39
1334,22876,26644.36
1335,22876,26664.33
1336,22872,26684.31
1337,22884,26704.28
1338,22892,26724.25
1339,22908,26744.23
1340,22932,26764.20
1341,22952,26784.17
1342,22968,26804.15
1343,22988,26824.12
1344,23004,26844.09
1345,23020,26864.07
1346,23044,26884.04
1347,23064,26904.01
1348,23084,26923.99
1349,23104,26943.96
1350,23112,26963.93
1351,23080,26983.91
1352,23012,27003.88
1353,22924,27023.85
1354,22844,27043.83
1355,22784,27063.80
1356,22760,27083.77
1357,22756,27103.75
1358,22768,27123.72
1359,22796,27143.69
1360,22828,27163.67
1361,22860,27183.64
1362,22888,27203.61
1363,22904,27223.59
1364,22912,27243.56
1365,22912,27263.53
1366,22908,27283.51
1367,22908,27303.48
1368,22908,27323.45
1369,22912,27343.43
1370,22924,27363.40
1371,22936,27383.37
1372,22956,27403.35
1373,22976,27423.32
1374,22988,27443.29
1375,23012,27463.27
1376,23032,27483.24
1377,23052,27503.21
1378,23068,27523.18
1379,23088,27543.16
1380,23100,27563.13
1381,23120,27583.10
1382,23136,27603.08
1383,23152,27623.05
1384,23136,27643.02
1385,23088,27663.00
1386,23008,27682.97
1387,22924,27702.94
1388,22856,27722.92
1389,22816,27742.89
1390,22804,27762.86
1391,22812,27782.84
1392,22832,27802.81
1393,22860,27822.78
1394,22888,27842.76
1395,22924,27862.73
1396,22944,27882.70
1397,22956,27902.68
1398,22960,27922.65
1399,22952,27942.62
1400,22940,27962.60
1401,22940,27982.57
1402,22940,28002.54
1403,22948,28022.52
1404,22956,28042.49
1405,22972,28062.46
1406,22992,28082.44
1407,23008,28102.41
1408,23032,28122.38
1409,23048,28142.36
1410,23064,28162.33
1411,23076,28182.30
1412,23092,28202.28
1413,23108,28222.25
1414,23120,28242.22
1415,23136,28262.20
1416,23136,28282.17
1417,23100,28302.14
1418,23028,28322.12
1419,22944,28342.09
1420,22864,28362.06
1421,22812,28382.04
1422,22792,28402.01
1423,22796,28421.98
1424,22812,28441.96
1425,22832,28461.93
1426,22868,28481.90
1427,22900,28501.88
1428,22928,28521.85
1429,22944,28541.82
1430,22948,28561.80
1431,22944,28581.77
1432,22944,28601.74
1433,22944,28621.72
1434,22948,28641.69
1435,22952,28661.66
1436,22968,28681.64
1437,22988,28701.61
1438,23008,28721.58
1439,23028,28741.56
1440,23048,28761.53
1441,23060,28781.50
1442,23084,28801.48
1443,23108,28821.45
1444,23128,28841.42
1445,23144,28861.39
1446,23164,28881.37
1447,23180,28901.34
1448,23196,28921.31
1449,23196,28941.29
1450,23148,28961.26
1451,23076,28981.23
1452,22984,29001.21
1453,22908,29021.18
1454,22848,29041.15
1455,22824,29061.13
1456,22824,29081.10
1457,22840,29101.07
1458,22864,29121.05
1459,22888,29141.02
1460,22912,29160.99
1461,22944,29180.97
1462,22960,29200.94
1463,22964,29220.91
1464,22964,29240.89
1465,22960,29260.86
1466,22960,29280.83
1467,22960,29300.81
1468,22972,29320.78
1469,22980,29340.75
1470,23000,29360.73
1471,23020,29380.70
1472,23044,29400.67
1473,23068,29420.65
1474,23092,29440.62
1475,23112,29460.59
1476,23136,29480.57
1477,23152,29500.54
1478,23172,29520.51
1479,23192,29540.49
1480,23208,29560.46
1481,23232,29580.43
1482,23244,29600.41
1483,23224,29620.38
1484,23168,29640.35
1485,23088,29660.33
1486,22996,29680.30
1487,22932,29700.27
1488,22896,29720.25
1489,22884,29740.22
1490,22888,29760.19
1491,22908,29780.17
1492,22932,29800.14
1493,22968,29820.11
1494,22996,29840.09
1495,23016,29860.06
1496,23028,29880.03
1497,23028,29900.01
1498,23016,29919.98
1499,23020,29939.95
1500,23012,29959.93
1501,23016,29979.90
1502,23024,29999.87
1503,23040,30019.85
1504,23056,30039.82
1505,23076,30059.79
1506,23096,30079.77
1507,23120,30099.74
1508,23136,30119.71
1509,23160,30139.69
1510,23180,30159.66
1511,23200,30179.63
1512,23220,30199.61
1513,23240,30219.58
1514,23256,30239.55
1515,23248,30259.52
1516,23204,30279.50
1517,23124,30299.47
1518,23048,30319.44
1519,22980,30339.42
1520,22936,30359.39
1521,22920,30379.36
1522,22924,30399.34
1523,22944,30419.31
1524,22968,30439.28
1525,23000,30459.26
1526,23024,30479.23
1527,23048,30499.20
1528,23060,30519.18
1529,23064,30539.15
1530,23052,30559.12
1531,23044,30579.10
1532,23032,30599.07
1533,23032,30619.04
1534,23040,30639.02
1535,23048,30658.99
1536,23056,30678.96
1537,23076,30698.94
1538,23092,30718.91
1539,23112,30738.88
1540,23136,30758.86
1541,23152,30778.83
1542,23172,30798.80
1543,23196,30818.78
1544,23212,30838.75
1545,23220,30858.72
1546,23200,30878.70
1547,23140,30898.67
1548,23060,30918.64
1549,22976,30938.62
1550,22916,30958.59
1551,22884,30978.56
1552,22880,30998.54
1553,22892,31018.51
1554,22912,31038.48
1555,22940,31058.46
1556,22972,31078.43
1557,23000,31098.40
1558,23024,31118.38
1559,23036,31138.35
1560,23036,31158.32
1561,23028,31178.30
1562,23020,31198.27
1563,23016,31218.24
1564,23020,31238.22
1565,23024,31258.19
1566,23036,31278.16
1567,23052,31298.14
1568,23064,31318.11
1569,23084,31338.08
1570,23100,31358.06
1571,23124,31378.03
1572,23140,31398.00
1573,23156,31417.98
1574,23176,31437.95
1575,23180,31457.92
1576,23152,31477.90
1577,23084,31497.87
1578,23000,31517.84
1579,22920,31537.82
1580,22856,31557.79
1581,22824,31577.76
1582,22816,31597.73
1583,22832,31617.71
1584,22852,31637.68
1585,22888,31657.65
1586,22920,31677.63
1587,22948,31697.60
1588,22972,31717.57
1589,22980,31737.55
1590,22984,31757.52
1591,22980,31777.49
1592,22980,31797.47
1593,22984,31817.44
1594,22980,31837.41
1595,22992,31857.39
1596,23008,31877.36
1597,23024,31897.33
1598,23044,31917.31
1599,23068,31937.28
1600,23084,31957.25
1601,23104,31977.23
1602,23124,31997.20
1603,23144,32017.17
1604,23160,32037.15
1605,23156,32057.12
1606,23112,32077.09
1607,23036,32097.07
1608,22948,32117.04
1609,22876,32137.01
1610,22832,32156.99
1611,22808,32176.96
1612,22804,32196.93
1613,22820,32216.91
1614,22848,32236.88
1615,22884,32256.85
1616,22916,32276.83
1617,22936,32296.80
1618,22952,32316.77
1619,22952,32336.75
1620,22948,32356.72
1621,22940,32376.69
1622,22936,32396.67
1623,22940,32416.64
1624,22940,32436.61
1625,22956,32456.59
1626,22968,32476.56
1627,22988,32496.53
1628,23004,32516.51
1629,23028,32536.48
1630,23044,32556.45
1631,23064,32576.43
1632,23080,32596.40
1633,23088,32616.37
1634,23068,32636.35
1635,23016,32656.32
1636,22936,32676.29
1637,22860,32696.27
1638,22804,32716.24
1639,22776,32736.21
1640,22776,32756.19
1641,22788,32776.16
1642,22812,32796.13
1643,22844,32816.11
1644,22872,32836.08
1645,22900,32856.05
1646,22908,32876.03
1647,22908,32896.00
1648,22896,32915.97
1649,22888,32935.94
1650,22876,32955.92
1651,22876,32975.89
1652,22880,32995.86
1653,22892,33015.84
1654,22904,33035.81
1655,22920,33055.78
1656,22940,33075.76
1657,22960,33095.73
1658,22980,33115.70
1659,23004,33135.68
1660,23024,33155.65
1661,23036,33175.62
1662,23012,33195.60
1663,22948,33215.57
1664,22864,33235.54
1665,22780,33255.52
1666,22720,33275.49
1667,22688,33295.46
1668,22688,33315.44
1669,22704,33335.41
1670,22728,33355.38
1671,22760,33375.36
1672,22792,33395.33
1673,22820,33415.30
1674,22836,33435.28
1675,22844,33455.25
1676,22840,33475.22
1677,22832,33495.20
1678,22828,33515.17
1679,22828,33535.14
1680,22832,33555.12
1681,22844,33575.09
1682,22856,33595.06
1683,22872,33615.04
1684,22892,33635.01
1685,22912,33654.98
1686,22928,33674.96
1687,22944,33694.93
1688,22964,33714.90
1689,22984,33734.88
1690,22988,33754.85
1691,22956,33774.82
1692,22888,33794.80
1693,22792,33814.77
1694,22704,33834.74
1695,22644,33854.72
1696,22612,33874.69
1697,22612,33894.66
1698,22628,33914.64
1699,22652,33934.61
1700,22688,33954.58
1701,22716,33974.56
1702,22744,33994.53
1703,22760,34014.50
1704,22768,34034.48
1705,22764,34054.45
1706,22760,34074.42
1707,22756,34094.40
1708,22764,34114.37
1709,22776,34134.34
1710,22784,34154.32
1711,22800,34174.29
1712,22820,34194.26
1713,22840,34214.24
1714,22860,34234.21
1715,22880,34254.18
1716,22900,34274.15
1717,22920,34294.13
1718,22940,34314.10
1719,22956,34334.07
1720,22976,34354.05
1721,22968,34374.02
1722,22932,34393.99
1723,22844,34413.97
1724,22744,34433.94
1725,22656,34453.91
1726,22600,34473.89
1727,22584,34493.86
1728,22588,34513.83
1729,22612,34533.81
1730,22636,34553.78
1731,22668,34573.75
1732,22696,34593.73
1733,22720,34613.70
1734,22732,34633.67
1735,22732,34653.65
1736,22724,34673.62
1737,22716,34693.59
1738,22716,34713.57
1739,22720,34733.54
1740,22728,34753.51
1741,22744,34773.49
1742,22760,34793.46
1743,22780,34813.43
1744,22800,34833.41
1745,22820,34853.38
1746,22840,34873.35
1747,22860,34893.33
1748,22884,34913.30
1749,22900,34933.27
1750,22916,34953.25
1751,22936,34973.22
1752,22952,34993.19
1753,22940,35013.17
1754,22892,35033.14
1755,22804,35053.11
1756,22712,35073.09
1757,22632,35093.06
1758,22584,35113.03
1759,22568,35133.01
1760,22580,35152.98
1761,22600,35172.95
1762,22624,35192.93
1763,22656,35212.90
1764,22680,35232.87
1765,22696,35252.85
1766,22700,35272.82
1767,22700,35292.79
1768,22688,35312.77
1769,22680,35332.74
1770,22676,35352.71
1771,22680,35372.69
1772,22688,35392.66
1773,22704,35412.63
1774,22724,35432.61
1775,22740,35452.58
1776,22764,35472.55
1777,22784,35492.53
1778,22800,35512.50
1779,22824,35532.47
1780,22840,35552.45
1781,22860,35572.42
1782,22876,35592.39
1783,22892,35612.36
1784,22908,35632.34
1785,22928,35652.31
1786,22944,35672.28
1787,22936,35692.26
1788,22884,35712.23
1789,22792,35732.20
1790,22684,35752.18
1791,22596,35772.15
1792,22540,35792.12
1793,22520,35812.10
1794,22528,35832.07
1795,22548,35852.04
1796,22572,35872.02
1797,22608,35891.99
1798,22636,35911.96
1799,22660,35931.94
1800,22672,35951.91
1801,22672,35971.88
1802,22668,35991.86
1803,22660,36011.83
1804,22652,36031.80
1805,22656,36051.78
1806,22660,36071.75
1807,22676,36091.72
1808,22692,36111.70
1809,22716,36131.67
1810,22736,36151.64
1811,22756,36171.62
1812,22776,36191.59
1813,22800,36211.56
1814,22820,36231.54
1815,22840,36251.51
1816,22856,36271.48
1817,22876,36291.46
1818,22892,36311.43
1819,22908,36331.40
1820,22928,36351.38
1821,22948,36371.35
1822,22960,36391.32
1823,22972,36411.30
1824,22936,36431.27
1825,22856,36451.24
1826,22748,36471.22
1827,22644,36491.19
1828,22572,36511.16
1829,22532,36531.14
1830,22528,36551.11
1831,22544,36571.08
1832,22568,36591.06
1833,22600,36611.03
1834,22632,36631.00
1835,22660,36650.98
1836,22680,36670.95
1837,22688,36690.92
1838,22688,36710.90
1839,22676,36730.87
1840,22672,36750.84
1841,22668,36770.82
1842,22676,36790.79
1843,22684,36810.76
1844,22700,36830.74
1845,22712,36850.71
1846,22736,36870.68
1847,22756,36890.66
1848,22772,36910.63
1849,22796,36930.60
1850,22816,36950.57
1851,22836,36970.55
1852,22852,36990.52
1853,22868,37010.49
1854,22880,37030.47
1855,22896,37050.44
1856,22908,37070.41
1857,22924,37090.39
1858,22944,37110.36
1859,22940,37130.33
1860,22892,37150.31
1861,22804,37170.28
1862,22704,37190.25
1863,22616,37210.23
1864,22560,37230.20
1865,22536,37250.17
1866,22540,37270.15
1867,22564,37290.12
1868,22596,37310.09
1869,22632,37330.07
1870,22668,37350.04
1871,22700,37370.01
1872,22712,37389.99
1873,22712,37409.96
1874,22704,37429.93
1875,22688,37449.91
1876,22676,37469.88
1877,22680,37489.85
1878,22684,37509.83
1879,22700,37529.80
1880,22724,37549.77
1881,22740,37569.75
1882,22764,37589.72
1883,22792,37609.69
1884,22812,37629.67
1885,22832,37649.64
1886,22848,37669.61
1887,22864,37689.59
1888,22880,37709.56
1889,22896,37729.53
1890,22912,37749.51
1891,22928,37769.48
1892,22944,37789.45
1893,22952,37809.43
1894,22924,37829.40
1895,22844,37849.37
1896,22740,37869.35
1897,22636,37889.32
1898,22556,37909.29
1899,22524,37929.27
1900,22516,37949.24
1901,22532,37969.21
1902,22560,37989.19
1903,22592,38009.16
1904,22632,38029.13
1905,22660,38049.11
1906,22680,38069.08
1907,22696,38089.05
1908,22700,38109.03
1909,22688,38129.00
1910,22688,38148.97
1911,22680,38168.95
1912,22684,38188.92
1913,22696,38208.89
1914,22708,38228.87
1915,22728,38248.84
1916,22752,38268.81
1917,22776,38288.78
1918,22796,38308.76
1919,22820,38328.73
1920,22848,38348.70
1921,22864,38368.68
1922,22884,38388.65
1923,22904,38408.62
1924,22924,38428.60
1925,22944,38448.57
1926,22960,38468.54
1927,22964,38488.52
1928,22916,38508.49
1929,22832,38528.46
1930,22720,38548.44
1931,22624,38568.41
1932,22560,38588.38
1933,22536,38608.36
1934,22532,38628.33
1935,22556,38648.30
1936,22584,38668.28
1937,22624,38688.25
1938,22664,38708.22
1939,22696,38728.20
1940,22716,38748.17
1941,22728,38768.14
1942,22724,38788.12
1943,22716,38808.09
1944,22712,38828.06
1945,22704,38848.04
1946,22708,38868.01
1947,22720,38887.98
1948,22732,38907.96
1949,22752,38927.93
1950,22776,38947.90
1951,22800,38967.88
1952,22816,38987.85
1953,22840,39007.82
1954,22860,39027.80
1955,22876,39047.77
1956,22896,39067.74
1957,22924,39087.72
1958,22932,39107.69
1959,22908,39127.66
1960,22832,39147.64
1961,22728,39167.61
1962,22636,39187.58
1963,22560,39207.56
1964,22528,39227.53
1965,22520,39247.50
1966,22532,39267.48
1967,22556,39287.45
1968,22596,39307.42
1969,22636,39327.40
1970,22672,39347.37
1971,22692,39367.34
1972,22704,39387.32
1973,22700,39407.29
1974,22692,39427.26
1975,22680,39447.24
1976,22672,39467.21
1977,22676,39487.18
1978,22684,39507.16
1979,22704,39527.13
1980,22720,39547.10
1981,22744,39567.08
1982,22764,39587.05
1983,22780,39607.02
1984,22800,39626.99
1985,22816,39646.97
1986,22836,39666.94
1987,22852,39686.91
1988,22836,39706.89
1989,22768,39726.86
1990,22676,39746.83
1991,22580,39766.81
1992,22512,39786.78
1993,22476,39806.75
1994,22472,39826.73
1995,22484,39846.70
1996,22520,39866.67
1997,22552,39886.65
1998,22596,39906.62
1999,22636,39926.59
2000,22656,39946.57
2001,22672,39966.54
2002,22668,39986.51
2003,22660,40006.49
2004,22648,40026.46
2005,22644,40046.43
2006,22644,40066.41
2007,22656,40086.38
2008,22672,40106.35
2009,22692,40126.33
2010,22712,40146.30
2011,22732,40166.27
2012,22748,40186.25
2013,22768,40206.22
2014,22788,40226.19
2015,22808,40246.17
2016,22824,40266.14
2017,22816,40286.11
2018,22756,40306.09
2019,22660,40326.06
2020,22552,40346.03
2021,22464,40366.01
2022,22416,40385.98
2023,22404,40405.95
2024,22416,40425.93
2025,22444,40445.90
2026,22480,40465.87
2027,22520,40485.85
2028,22560,40505.82
2029,22592,40525.79
2030,22608,40545.77
2031,22616,40565.74
2032,22616,40585.71
2033,22608,40605.69
2034,22604,40625.66
2035,22608,40645.63
2036,22620,40665.61
2037,22632,40685.58
2038,22656,40705.55
2039,22676,40725.53
2040,22696,40745.50
2041,22720,40765.47
2042,22740,40785.45
2043,22756,40805.42
2044,22772,40825.39
2045,22796,40845.37
2046,22816,40865.34
2047,22812,40885.31
2048,22760,40905.29
2049,22672,40925.26
2050,22564,40945.23
2051,22472,40965.20
2052,22412,40985.18
2053,22392,41005.15
2054,22396,41025.12
2055,22420,41045.10
2056,22456,41065.07
2057,22496,41085.04
2058,22540,41105.02
2059,22568,41124.99
2060,22588,41144.96
2061,22596,41164.94
2062,22588,41184.91
2063,22580,41204.88
2064,22568,41224.86
2065,22572,41244.83
2066,22576,41264.80
2067,22592,41284.78
2068,22616,41304.75
2069,22636,41324.72
2070,22656,41344.70
2071,22680,41364.67
2072,22700,41384.64
2073,22720,41404.62
2074,22740,41424.59
2075,22760,41444.56
2076,22780,41464.54
2077,22772,41484.51
2078,22712,41504.48
2079,22612,41524.46
2080,22512,41544.43
2081,22432,41564.40
2082,22384,41584.38
2083,22372,41604.35
2084,22384,41624.32
2085,22416,41644.30
2086,22452,41664.27
2087,22492,41684.24
2088,22532,41704.22
2089,22552,41724.19
2090,22564,41744.16
2091,22560,41764.14
2092,22544,41784.11
2093,22532,41804.08
2094,22528,41824.06
2095,22528,41844.03
2096,22536,41864.00
2097,22556,41883.98
2098,22576,41903.95
2099,22600,41923.92
2100,22624,41943.90
2101,22648,41963.87
2102,22668,41983.84
2103,22688,42003.82
2104,22712,42023.79
2105,22728,42043.76
2106,22748,42063.74
2107,22744,42083.71
2108,22688,42103.68
2109,22584,42123.66
2110,22476,42143.63
2111,22392,42163.60
2112,22340,42183.58
2113,22328,42203.55
2114,22344,42223.52
2115,22372,42243.50
2116,22412,42263.47
2117,22456,42283.44
2118,22492,42303.41
2119,22520,42323.39
2120,22536,42343.36
2121,22532,42363.33
2122,22516,42383.31
2123,22512,42403.28
2124,22508,42423.25
2125,22508,42443.23
2126,22516,42463.20
2127,22532,42483.17
2128,22548,42503.15
2129,22576,42523.12
2130,22596,42543.09
2131,22616,42563.07
2132,22640,42583.04
2133,22652,42603.01
2134,22680,42622.99
2135,22700,42642.96
2136,22720,42662.93
2137,22740,42682.91
2138,22752,42702.88
2139,22728,42722.85
2140,22652,42742.83
2141,22540,42762.80
2142,22436,42782.77
2143,22356,42802.75
2144,22320,42822.72
2145,22312,42842.69
2146,22336,42862.67
2147,22364,42882.64
2148,22408,42902.61
2149,22448,42922.59
2150,22484,42942.56
2151,22508,42962.53
2152,22520,42982.51
2153,22520,43002.48
2154,22512,43022.45
2155,22504,43042.43
2156,22504,43062.40
2157,22504,43082.37
2158,22520,43102.35
2159,22532,43122.32
2160,22548,43142.29
2161,22568,43162.27
2162,22588,43182.24
2163,22608,43202.21
2164,22628,43222.19
2165,22652,43242.16
2166,22668,43262.13
2167,22688,43282.11
2168,22708,43302.08
2169,22728,43322.05
2170,22736,43342.03
2171,22720,43362.00
2172,22652,43381.97
2173,22544,43401.95
2174,22436,43421.92
2175,22360,43441.89
2176,22316,43461.87
2177,22312,43481.84
2178,22324,43501.81
2179,22360,43521.79
2180,22400,43541.76
2181,22444,43561.73
2182,22484,43581.71
2183,22512,43601.68
2184,22524,43621.65
2185,22524,43641.62
2186,22516,43661.60
2187,22504,43681.57
2188,22500,43701.54
2189,22500,43721.52
2190,22508,43741.49
2191,22528,43761.46
2192,22548,43781.44
2193,22572,43801.41
2194,22592,43821.38
2195,22616,43841.36
2196,22640,43861.33
2197,22664,43881.30
2198,22676,43901.28
2199,22692,43921.25
2200,22712,43941.22
2201,22728,43961.20
2202,22700,43981.17
2203,22624,44001.14
2204,22516,44021.12
2205,22408,44041.09
2206,22332,44061.06
2207,22296,44081.04
2208,22288,44101.01
2209,22304,44120.98
2210,22332,44140.96
2211,22372,44160.93
2212,22416,44180.90
2213,22456,44200.88
2214,22484,44220.85
2215,22496,44240.82
2216,22500,44260.80
2217,22488,44280.77
2218,22476,44300.74
2219,22472,44320.72
2220,22480,44340.69
2221,22492,44360.66
2222,22508,44380.64
2223,22532,44400.61
2224,22556,44420.58
2225,22580,44440.56
2226,22600,44460.53
2227,22628,44480.50
2228,22656,44500.48
2229,22676,44520.45
2230,22692,44540.42
2231,22708,44560.40
2232,22728,44580.37
2233,22744,44600.34
2234,22764,44620.32
2235,22744,44640.29
2236,22676,44660.26
2237,22564,44680.24
2238,22444,44700.21
2239,22348,44720.18
2240,22296,44740.16
2241,22280,44760.13
2242,22292,44780.10
2243,22320,44800.08
2244,22352,44820.05
2245,22396,44840.02
2246,22440,44860.00
2247,22472,44879.97
2248,22492,44899.94
2249,22496,44919.92
2250,22488,44939.89
2251,22480,44959.86
2252,22472,44979.83
2253,22472,44999.81
2254,22480,45019.78
2255,22492,45039.75
2256,22512,45059.73
2257,22540,45079.70
2258,22564,45099.67
2259,22588,45119.65
2260,22612,45139.62
2261,22636,45159.59
2262,22656,45179.57
2263,22676,45199.54
2264,22696,45219.51
2265,22720,45239.49
2266,22740,45259.46
2267,22760,45279.43
2268,22772,45299.41
2269,22744,45319.38
2270,22660,45339.35
2271,22544,45359.33
2272,22436,45379.30
2273,22356,45399.27
2274,22312,45419.25
2275,22304,45439.22
2276,22320,45459.19
2277,22352,45479.17
2278,22392,45499.14
2279,22436,45519.11
2280,22476,45539.09
2281,22500,45559.06
2282,22516,45579.03
2283,22512,45599.01
2284,22504,45618.98
2285,22492,45638.95
2286,22480,45658.93
2287,22484,45678.90
2288,22492,45698.87
2289,22508,45718.85
2290,22524,45738.82
2291,22544,45758.79
2292,22560,45778.77
2293,22584,45798.74
2294,22612,45818.71
2295,22636,45838.69
2296,22656,45858.66
2297,22672,45878.63
2298,22692,45898.61
2299,22716,45918.58
2300,22736,45938.55
2301,22712,45958.53
2302,22632,45978.50
2303,22528,45998.47
2304,22424,46018.45
2305,22344,46038.42
2306,22300,46058.39
2307,22292,46078.37
2308,22312,46098.34
2309,22340,46118.31
2310,22376,46138.29
2311,22420,46158.26
2312,22456,46178.23
2313,22484,46198.21
2314,22500,46218.18
2315,22504,46238.15
2316,22496,46258.13
2317,22484,46278.10
2318,22476,46298.07
2319,22476,46318.04
2320,22484,46338.02
2321,22496,46357.99
2322,22512,46377.96
2323,22536,46397.94
2324,22560,46417.91
2325,22576,46437.88
2326,22604,46457.86
2327,22624,46477.83
2328,22648,46497.80
2329,22668,46517.78
2330,22688,46537.75
2331,22704,46557.72
2332,22720,46577.70
2333,22712,46597.67
2334,22656,46617.64
2335,22552,46637.62
2336,22424,46657.59
2337,22320,46677.56
2338,22260,46697.54
2339,22240,46717.51
2340,22248,46737.48
2341,22268,46757.46
2342,22308,46777.43
2343,22348,46797.40
2344,22392,46817.38
2345,22428,46837.35
2346,22452,46857.32
2347,22464,46877.30
2348,22456,46897.27
2349,22448,46917.24
2350,22436,46937.22
2351,22436,46957.19
2352,22440,46977.16
2353,22452,46997.14
2354,22472,47017.11
2355,22492,47037.08
2356,22516,47057.06
2357,22540,47077.03
2358,22568,47097.00
2359,22588,47116.98
2360,22608,47136.95
2361,22628,47156.92
2362,22652,47176.90
2363,22668,47196.87
2364,22688,47216.84
2365,22688,47236.82
2366,22640,47256.79
2367,22536,47276.76
2368,22416,47296.74
2369,22308,47316.71
2370,22240,47336.68
2371,22212,47356.66
2372,22216,47376.63
2373,22240,47396.60
2374,22276,47416.58
2375,22316,47436.55
2376,22360,47456.52
2377,22404,47476.50
2378,22432,47496.47
2379,22440,47516.44
2380,22436,47536.42
2381,22424,47556.39
2382,22416,47576.36
2383,22416,47596.34
2384,22424,47616.31
2385,22432,47636.28
2386,22452,47656.25
2387,22472,47676.23
2388,22496,47696.20
2389,22520,47716.17
2390,22544,47736.15
2391,22568,47756.12
2392,22588,47776.09
2393,22612,47796.07
2394,22636,47816.04
2395,22652,47836.01
2396,22672,47855.99
2397,22652,47875.96
2398,22584,47895.93
2399,22480,47915.91
2400,22360,47935.88
2401,22272,47955.85
2402,22220,47975.83
2403,22208,47995.80
2404,22220,48015.77
2405,22252,48035.75
2406,22292,48055.72
2407,22336,48075.69
2408,22372,48095.67
2409,22408,48115.64
2410,22420,48135.61
2411,22420,48155.59
2412,22412,48175.56
2413,22400,48195.53
2414,22392,48215.51
2415,22392,48235.48
2416,22396,48255.45
2417,22416,48275.43
2418,22432,48295.40
2419,22456,48315.37
2420,22472,48335.35
2421,22492,48355.32
2422,22512,48375.29
2423,22528,48395.27
2424,22548,48415.24
2425,22572,48435.21
2426,22584,48455.19
2427,22552,48475.16
2428,22476,48495.13
2429,22372,48515.11
2430,22268,48535.08
2431,22200,48555.05
2432,22168,48575.03
2433,22172,48595.00
2434,22192,48614.97
2435,22228,48634.95
2436,22268,48654.92
2437,22308,48674.89
2438,22340,48694.87
2439,22360,48714.84
2440,22364,48734.81
2441,22360,48754.79
2442,22348,48774.76
2443,22336,48794.73
2444,22336,48814.71
2445,22340,48834.68
2446,22352,48854.65
2447,22368,48874.63
2448,22384,48894.60
2449,22408,48914.57
2450,22428,48934.55
2451,22448,48954.52
2452,22472,48974.49
2453,22488,48994.47
2454,22512,49014.44
2455,22540,49034.41
2456,22548,49054.38
2457,22516,49074.36
2458,22432,49094.33
2459,22320,49114.30
2460,22212,49134.28
2461,22136,49154.25
2462,22108,49174.22
2463,22108,49194.20
2464,22132,49214.17
2465,22168,49234.14
2466,22208,49254.12
2467,22248,49274.09
2468,22280,49294.06
2469,22300,49314.04
2470,22312,49334.01
2471,22308,49353.98
2472,22296,49373.96
2473,22288,49393.93
2474,22288,49413.90
2475,22296,49433.88
2476,22308,49453.85
2477,22324,49473.82
2478,22336,49493.80
2479,22360,49513.77
2480,22376,49533.74
2481,22396,49553.72
2482,22416,49573.69
2483,22436,49593.66
2484,22456,49613.64
2485,22472,49633.61
2486,22492,49653.58
2487,22468,49673.56
2488,22384,49693.53
2489,22276,49713.50
2490,22176,49733.48
2491,22104,49753.45
2492,22072,49773.42
2493,22068,49793.40
2494,22092,49813.37
2495,22128,49833.34
2496,22164,49853.32
2497,22204,49873.29
2498,22240,49893.26
2499,22268,49913.24
2500,22272,49933.21
2501,22272,49953.18
2502,22260,49973.16
2503,22252,49993.13
2504,22252,50013.10
2505,22260,50033.08
2506,22272,50053.05
2507,22288,50073.02
2508,22308,50093.00
2509,22328,50112.97
2510,22352,50132.94
2511,22372,50152.92
2512,22396,50172.89
2513,22412,50192.86
2514,22432,50212.84
2515,22452,50232.81
2516,22460,50252.78
2517,22428,50272.76
2518,22344,50292.73
2519,22240,50312.70
2520,22144,50332.68
2521,22084,50352.65
2522,22060,50372.62
2523,22064,50392.59
2524,22088,50412.57
2525,22128,50432.54
2526,22172,50452.51
2527,22212,50472.49
2528,22236,50492.46
2529,22256,50512.43
2530,22260,50532.41
2531,22252,50552.38
2532,22240,50572.35
2533,22232,50592.33
2534,22228,50612.30
2535,22236,50632.27
2536,22248,50652.25
2537,22268,50672.22
2538,22284,50692.19
2539,22300,50712.17
2540,22316,50732.14
2541,22340,50752.11
2542,22364,50772.09
2543,22380,50792.06
2544,22404,50812.03
2545,22424,50832.01
2546,22432,50851.98
2547,22392,50871.95
2548,22304,50891.93
2549,22192,50911.90
2550,22100,50931.87
2551,22052,50951.85
2552,22036,50971.82
2553,22052,50991.79
2554,22080,51011.77
2555,22116,51031.74
2556,22160,51051.71
2557,22204,51071.69
2558,22228,51091.66
2559,22244,51111.63
2560,22236,51131.61
2561,22228,51151.58
2562,22220,51171.55
2563,22216,51191.53
2564,22216,51211.50
2565,22228,51231.47
2566,22244,51251.45
2567,22260,51271.42
2568,22284,51291.39
2569,22308,51311.37
2570,22328,51331.34
2571,22348,51351.31
2572,22368,51371.29
2573,22388,51391.26
2574,22408,51411.23
2575,22424,51431.21
2576,22440,51451.18
2577,22460,51471.15
2578,22472,51491.13
2579,22440,51511.10
2580,22352,51531.07
2581,22228,51551.05
2582,22120,51571.02
2583,22048,51590.99
2584,22020,51610.97
2585,22024,51630.94
2586,22044,51650.91
2587,22076,51670.89
2588,22120,51690.86
2589,22156,51710.83
2590,22192,51730.80
2591,22216,51750.78
2592,22228,51770.75
2593,22224,51790.72
2594,22220,51810.70
2595,22212,51830.67
2596,22208,51850.64
2597,22216,51870.62
2598,22228,51890.59
2599,22248,51910.56
2600,22264,51930.54
2601,22288,51950.51
2602,22308,51970.48
2603,22332,51990.46
2604,22356,52010.43
2605,22380,52030.40
2606,22404,52050.38
2607,22420,52070.35
2608,22432,52090.32
2609,22448,52110.30
2610,22468,52130.27
2611,22484,52150.24
2612,22492,52170.22
2613,22464,52190.19
2614,22380,52210.16
2615,22264,52230.14
2616,22152,52250.11
2617,22072,52270.08
2618,22036,52290.06
2619,22036,52310.03
2620,22056,52330.00
2621,22096,52349.98
2622,22136,52369.95
2623,22180,52389.92
2624,22220,52409.90
2625,22244,52429.87
2626,22252,52449.84
2627,22252,52469.82
2628,22240,52489.79
2629,22232,52509.76
2630,22228,52529.74
2631,22236,52549.71
2632,22240,52569.68
2633,22252,52589.66
2634,22276,52609.63
2635,22304,52629.60
2636,22324,52649.58
2637,22348,52669.55
2638,22364,52689.52
2639,22388,52709.50
2640,22408,52729.47
2641,22424,52749.44
2642,22440,52769.42
2643,22456,52789.39
2644,22472,52809.36
2645,22480,52829.34
2646,22452,52849.31
2647,22368,52869.28
2648,22248,52889.26
2649,22132,52909.23
2650,22052,52929.20
2651,22016,52949.18
2652,22016,52969.15
2653,22040,52989.12
2654,22080,53009.10
2655,22124,53029.07
2656,22168,53049.04
2657,22208,53069.01
2658,22232,53088.99
2659,22248,53108.96
2660,22240,53128.93
2661,22228,53148.91
2662,22220,53168.88
2663,22220,53188.85
2664,22228,53208.83
2665,22240,53228.80
2666,22264,53248.77
2667,22284,53268.75
2668,22312,53288.72
2669,22340,53308.69
2670,22360,53328.67
2671,22384,53348.64
2672,22404,53368.61
2673,22424,53388.59
2674,22444,53408.56
2675,22464,53428.53
2676,22484,53448.51
2677,22496,53468.48
2678,22520,53488.45
2679,22532,53508.43
2680,22504,53528.40
2681,22416,53548.37
2682,22292,53568.35
2683,22156,53588.32
2684,22064,53608.29
2685,22016,53628.27
2686,22008,53648.24
2687,22028,53668.21
2688,22056,53688.19
2689,22096,53708.16
2690,22140,53728.13
2691,22184,53748.11
2692,22212,53768.08
2693,22228,53788.05
2694,22228,53808.03
2695,22220,53828.00
2696,22212,53847.97
2697,22208,53867.95
2698,22208,53887.92
2699,22224,53907.89
2700,22244,53927.87
2701,22268,53947.84
2702,22292,53967.81
2703,22324,53987.79
2704,22348,54007.76
2705,22372,54027.73
2706,22396,54047.71
2707,22424,54067.68
2708,22440,54087.65
2709,22464,54107.63
2710,22488,54127.60
2711,22504,54147.57
2712,22524,54167.55
2713,22540,54187.52
2714,22548,54207.49
2715,22512,54227.47
2716,22412,54247.44
2717,22284,54267.41
2718,22160,54287.39
2719,22076,54307.36
2720,22040,54327.33
2721,22044,54347.31
2722,22064,54367.28
2723,22100,54387.25
2724,22144,54407.22
2725,22192,54427.20
2726,22232,54447.17
2727,22256,54467.14
2728,22272,54487.12
2729,22272,54507.09
2730,22256,54527.06
2731,22248,54547.04
2732,22244,54567.01
2733,22248,54586.98
2734,22252,54606.96
2735,22268,54626.93
2736,22284,54646.90
2737,22312,54666.88
2738,22332,54686.85
2739,22360,54706.82
2740,22384,54726.80
2741,22404,54746.77
2742,22428,54766.74
2743,22448,54786.72
2744,22464,54806.69
2745,22480,54826.66
2746,22496,54846.64
2747,22520,54866.61
2748,22528,54886.58
2749,22484,54906.56
2750,22392,54926.53
2751,22268,54946.50
2752,22160,54966.48
2753,22080,54986.45
2754,22048,55006.42
2755,22048,55026.40
2756,22076,55046.37
2757,22112,55066.34
2758,22152,55086.32
2759,22196,55106.29
2760,22240,55126.26
2761,22268,55146.24
2762,22280,55166.21
2763,22284,55186.18
2764,22272,55206.16
2765,22256,55226.13
2766,22252,55246.10
2767,22260,55266.08
2768,22264,55286.05
2769,22276,55306.02
2770,22300,55326.00
2771,22320,55345.97
2772,22344,55365.94
2773,22368,55385.92
2774,22396,55405.89
2775,22416,55425.86
2776,22440,55445.84
2777,22460,55465.81
2778,22476,55485.78
2779,22496,55505.76
2780,22512,55525.73
2781,22532,55545.70
2782,22544,55565.68
2783,22524,55585.65
2784,22432,55605.62
2785,22300,55625.60
2786,22168,55645.57
2787,22072,55665.54
2788,22024,55685.52
2789,22020,55705.49
2790,22036,55725.46
2791,22072,55745.43
2792,22120,55765.41
2793,22172,55785.38
2794,22216,55805.35
2795,22252,55825.33
2796,22276,55845.30
2797,22276,55865.27
2798,22272,55885.25
2799,22256,55905.22
2800,22252,55925.19
2801,22256,55945.17
2802,22260,55965.14
2803,22280,55985.11
2804,22300,56005.09
2805,22328,56025.06
2806,22356,56045.03
2807,22376,56065.01
2808,22404,56084.98
2809,22424,56104.95
2810,22452,56124.93
2811,22468,56144.90
2812,22492,56164.87
2813,22508,56184.85
2814,22532,56204.82
2815,22552,56224.79
2816,22568,56244.77
2817,22564,56264.74
2818,22496,56284.71
2819,22380,56304.69
2820,22244,56324.66
2821,22128,56344.63
2822,22060,56364.61
2823,22036,56384.58
2824,22044,56404.55
2825,22080,56424.53
2826,22120,56444.50
2827,22168,56464.47
2828,22220,56484.45
2829,22264,56504.42
2830,22288,56524.39
2831,22304,56544.37
2832,22300,56564.34
2833,22292,56584.31
2834,22280,56604.29
2835,22276,56624.26
2836,22280,56644.23
2837,22288,56664.21
2838,22308,56684.18
2839,22324,56704.15
2840,22348,56724.13
2841,22372,56744.10
2842,22400,56764.07
2843,22424,56784.05
2844,22452,56804.02
2845,22472,56823.99
2846,22496,56843.97
2847,22512,56863.94
2848,22536,56883.91
2849,22548,56903.89
2850,22540,56923.86
2851,22480,56943.83
2852,22364,56963.81
2853,22240,56983.78
2854,22136,57003.75
2855,22076,57023.73
2856,22052,57043.70
2857,22060,57063.67
2858,22092,57083.64
2859,22136,57103.62
2860,22184,57123.59
2861,22232,57143.56
2862,22272,57163.54
2863,22296,57183.51
2864,22304,57203.48
2865,22300,57223.46
2866,22280,57243.43
2867,22260,57263.40
2868,22252,57283.38
2869,22252,57303.35
2870,22264,57323.32
2871,22280,57343.30
2872,22300,57363.27
2873,22324,57383.24
2874,22352,57403.22
2875,22384,57423.19
2876,22408,57443.16
2877,22432,57463.14
2878,22456,57483.11
2879,22476,57503.08
2880,22496,57523.06
2881,22512,57543.03
2882,22472,57563.00
2883,22380,57582.98
2884,22256,57602.95
2885,22144,57622.92
2886,22064,57642.90
2887,22024,57662.87
2888,22024,57682.84
2889,22052,57702.82
2890,22092,57722.79
2891,22136,57742.76
2892,22188,57762.74
2893,22224,57782.71
2894,22260,57802.68
2895,22272,57822.66
2896,22272,57842.63
2897,22264,57862.60
2898,22252,57882.58
2899,22240,57902.55
2900,22240,57922.52
2901,22248,57942.50
2902,22264,57962.47
2903,22284,57982.44
2904,22308,58002.42
2905,22332,58022.39
2906,22356,58042.36
2907,22380,58062.34
2908,22404,58082.31
2909,22428,58102.28
2910,22448,58122.26
2911,22468,58142.23
2912,22488,58162.20
2913,22476,58182.18
2914,22404,58202.15
2915,22284,58222.12
2916,22160,58242.10
2917,22060,58262.07
2918,22008,58282.04
2919,21996,58302.02
2920,22012,58321.99
2921,22048,58341.96
2922,22092,58361.94
2923,22140,58381.91
2924,22188,58401.88
2925,22224,58421.85
2926,22248,58441.83
2927,22256,58461.80
2928,22256,58481.77
2929,22240,58501.75
2930,22232,58521.72
2931,22228,58541.69
2932,22232,58561.67
2933,22240,58581.64
2934,22256,58601.61
2935,22276,58621.59
2936,22300,58641.56
2937,22320,58661.53
2938,22344,58681.51
2939,22368,58701.48
2940,22392,58721.45
2941,22412,58741.43
2942,22432,58761.40
2943,22448,58781.37
2944,22464,58801.35
2945,22440,58821.32
2946,22364,58841.29
2947,22248,58861.27
2948,22132,58881.24
2949,22052,58901.21
2950,22012,58921.19
2951,22004,58941.16
2952,22024,58961.13
2953,22060,58981.11
2954,22108,59001.08
2955,22160,59021.05
2956,22200,59041.03
2957,22232,59061.00
2958,22248,59080.97
2959,22256,59100.95
2960,22248,59120.92
2961,22232,59140.89
2962,22220,59160.87
2963,22216,59180.84
2964,22224,59200.81
2965,22236,59220.79
2966,22252,59240.76
2967,22280,59260.73
2968,22300,59280.71
2969,22324,59300.68
2970,22348,59320.65
2971,22368,59340.63
2972,22392,59360.60
2973,22408,59380.57
2974,22424,59400.55
2975,22404,59420.52
2976,22328,59440.49
2977,22220,59460.47
2978,22112,59480.44
2979,22036,59500.41
2980,21992,59520.39
2981,21992,59540.36
2982,22012,59560.33
2983,22044,59580.31
2984,22088,59600.28
2985,22140,59620.25
2986,22180,59640.23
2987,22216,59660.20
2988,22232,59680.17
2989,22228,59700.15
2990,22220,59720.12
2991,22212,59740.09
2992,22204,59760.06
2993,22208,59780.04
2994,22216,59800.01
2995,22232,59819.98
2996,22252,59839.96
2997,22276,59859.93
2998,22300,59879.90
2999,22324,59899.88
