Sample_Index,IR_Value,Timestamp_ms
0,23624,0.00
1,23616,20.05
2,23608,40.11
3,23604,60.16
4,23600,80.22
5,23596,100.27
6,23600,120.33
7,23596,140.38
8,23596,160.44
9,23596,180.49
10,23600,200.55
11,23600,220.60
12,23600,240.66
13,23600,260.71
14,23596,280.77
15,23596,300.82
16,23596,320.88
17,23596,340.93
18,23600,360.99
19,23600,381.04
20,23600,401.10
21,23600,421.15
22,23604,441.21
23,23604,461.26
24,23608,481.32
25,23604,501.37
26,23604,521.43
27,23604,541.48
28,23604,561.54
29,23608,581.59
30,23608,601.65
31,23612,621.70
32,23612,641.76
33,23608,661.81
34,23596,681.87
35,23576,701.92
36,23560,721.98
37,23544,742.03
38,23532,762.09
39,23524,782.14
40,23520,802.19
41,23512,822.25
42,23508,842.30
43,23508,862.36
44,23504,882.41
45,23500,902.47
46,23500,922.52
47,23496,942.58
48,23496,962.63
49,23492,982.69
50,23488,1002.74
51,23488,1022.80
52,23484,1042.85
53,23488,1062.91
54,23484,1082.96
55,23484,1103.02
56,23488,1123.07
57,23488,1143.13
58,23488,1163.18
59,23492,1183.24
60,23492,1203.29
61,23496,1223.35
62,23500,1243.40
63,23500,1263.46
64,23504,1283.51
65,23504,1303.57
66,23508,1323.62
67,23512,1343.68
68,23512,1363.73
69,23512,1383.79
70,23512,1403.84
71,23516,1423.90
72,23516,1443.95
73,23520,1464.01
74,23516,1484.06
75,23504,1504.12
76,23484,1524.17
77,23468,1544.22
78,23456,1564.28
79,23436,1584.33
80,23428,1604.39
81,23420,1624.44
82,23416,1644.50
83,23416,1664.55
84,23404,1684.61
85,23404,1704.66
86,23396,1724.72
87,23388,1744.77
88,23384,1764.83
89,23372,1784.88
90,23360,1804.94
91,23352,1824.99
92,23344,1845.05
93,23336,1865.10
94,23332,1885.16
95,23324,1905.21
96,23320,1925.27
97,23312,1945.32
98,23308,1965.38
99,23300,1985.43
100,23296,2005.49
101,23292,2025.54
102,23284,2045.60
103,23280,2065.65
104,23276,2085.71
105,23272,2105.76
106,23268,2125.82
107,23264,2145.87
108,23260,2165.93
109,23260,2185.98
110,23260,2206.04
111,23256,2226.09
112,23248,2246.15
113,23236,2266.20
114,23224,2286.26
115,23212,2306.31
116,23200,2326.36
117,23196,2346.42
118,23196,2366.47
119,23196,2386.53
120,23200,2406.58
121,23204,2426.64
122,23212,2446.69
123,23220,2466.75
124,23224,2486.80
125,23228,2506.86
126,23232,2526.91
127,23228,2546.97
128,23232,2567.02
129,23232,2587.08
130,23240,2607.13
131,23244,2627.19
132,23252,2647.24
133,23260,2667.30
134,23264,2687.35
135,23272,2707.41
136,23284,2727.46
137,23292,2747.52
138,23300,2767.57
139,23308,2787.63
140,23316,2807.68
141,23328,2827.74
142,23336,2847.79
143,23348,2867.85
144,23352,2887.90
145,23352,2907.96
146,23344,2928.01
147,23328,2948.07
148,23308,2968.12
149,23292,2988.18
150,23276,3008.23
151,23268,3028.29
152,23264,3048.34
153,23264,3068.40
154,23264,3088.45
155,23264,3108.50
156,23264,3128.56
157,23264,3148.61
158,23268,3168.67
159,23268,3188.72
160,23264,3208.78
161,23264,3228.83
162,23256,3248.89
163,23256,3268.94
164,23256,3289.00
165,23252,3309.05
166,23252,3329.11
167,23252,3349.16
168,23252,3369.22
169,23252,3389.27
170,23256,3409.33
171,23256,3429.38
172,23260,3449.44
173,23264,3469.49
174,23268,3489.55
175,23268,3509.60
176,23264,3529.66
177,23252,3549.71
178,23232,3569.77
179,23208,3589.82
180,23176,3609.88
181,23148,3629.93
182,23124,3649.99
183,23108,3670.04
184,23092,3690.10
185,23084,3710.15
186,23072,3730.21
187,23064,3750.26
188,23060,3770.32
189,23056,3790.37
190,23052,3810.43
191,23044,3830.48
192,23036,3850.54
193,23024,3870.59
194,23016,3890.64
195,23008,3910.70
196,23000,3930.75
197,22992,3950.81
198,22988,3970.86
199,22984,3990.92
200,22988,4010.97
201,22988,4031.03
202,22988,4051.08
203,22988,4071.14
204,22988,4091.19
205,22984,4111.25
206,22984,4131.30
207,22984,4151.36
208,22980,4171.41
209,22980,4191.47
210,22972,4211.52
211,22952,4231.58
212,22924,4251.63
213,22884,4271.69
214,22844,4291.74
215,22808,4311.80
216,22784,4331.85
217,22768,4351.91
218,22760,4371.96
219,22748,4392.02
220,22744,4412.07
221,22740,4432.13
222,22740,4452.18
223,22740,4472.24
224,22736,4492.29
225,22732,4512.35
226,22728,4532.40
227,22728,4552.46
228,22728,4572.51
229,22728,4592.57
230,22732,4612.62
231,22736,4632.67
232,22740,4652.73
233,22740,4672.78
234,22748,4692.84
235,22752,4712.89
236,22760,4732.95
237,22772,4753.00
238,22780,4773.06
239,22784,4793.11
240,22788,4813.17
241,22796,4833.22
242,22800,4853.28
243,22808,4873.33
244,22812,4893.39
245,22816,4913.44
246,22816,4933.50
247,22812,4953.55
248,22800,4973.61
249,22764,4993.66
250,22732,5013.72
251,22696,5033.77
252,22676,5053.83
253,22656,5073.88
254,22656,5093.94
255,22652,5113.99
256,22656,5134.05
257,22664,5154.10
258,22676,5174.16
259,22684,5194.21
260,22692,5214.27
261,22700,5234.32
262,22704,5254.38
263,22708,5274.43
264,22708,5294.49
265,22704,5314.54
266,22704,5334.60
267,22704,5354.65
268,22716,5374.71
269,22720,5394.76
270,22732,5414.81
271,22744,5434.87
272,22756,5454.92
273,22760,5474.98
274,22772,5495.03
275,22784,5515.09
276,22796,5535.14
277,22804,5555.20
278,22812,5575.25
279,22828,5595.31
280,22832,5615.36
281,22840,5635.42
282,22844,5655.47
283,22852,5675.53
284,22864,5695.58
285,22868,5715.64
286,22876,5735.69
287,22888,5755.75
288,22896,5775.80
289,22908,5795.86
290,22904,5815.91
291,22888,5835.97
292,22864,5856.02
293,22836,5876.08
294,22812,5896.13
295,22800,5916.19
296,22796,5936.24
297,22796,5956.30
298,22800,5976.35
299,22804,5996.41
300,22808,6016.46
301,22812,6036.52
302,22820,6056.57
303,22816,6076.63
304,22812,6096.68
305,22804,6116.74
306,22796,6136.79
307,22788,6156.85
308,22780,6176.90
309,22772,6196.95
310,22772,6217.01
311,22768,6237.06
312,22764,6257.12
313,22764,6277.17
314,22764,6297.23
315,22764,6317.28
316,22768,6337.34
317,22772,6357.39
318,22776,6377.45
319,22780,6397.50
320,22784,6417.56
321,22784,6437.61
322,22792,6457.67
323,22792,6477.72
324,22796,6497.78
325,22800,6517.83
326,22808,6537.89
327,22812,6557.94
328,22816,6578.00
329,22808,6598.05
330,22784,6618.11
331,22760,6638.16
332,22740,6658.22
333,22720,6678.27
334,22708,6698.33
335,22704,6718.38
336,22704,6738.44
337,22716,6758.49
338,22724,6778.55
339,22736,6798.60
340,22744,6818.66
341,22748,6838.71
342,22752,6858.77
343,22752,6878.82
344,22748,6898.88
345,22744,6918.93
346,22736,6938.99
347,22732,6959.04
348,22728,6979.09
349,22728,6999.15
350,22732,7019.20
351,22736,7039.26
352,22740,7059.31
353,22748,7079.37
354,22752,7099.42
355,22760,7119.48
356,22772,7139.53
357,22776,7159.59
358,22784,7179.64
359,22796,7199.70
360,22804,7219.75
361,22812,7239.81
362,22816,7259.86
363,22820,7279.92
364,22816,7299.97
365,22792,7320.03
366,22764,7340.08
367,22724,7360.14
368,22692,7380.19
369,22672,7400.25
370,22660,7420.30
371,22656,7440.36
372,22656,7460.41
373,22656,7480.47
374,22664,7500.52
375,22668,7520.58
376,22676,7540.63
377,22680,7560.69
378,22684,7580.74
379,22684,7600.80
380,22684,7620.85
381,22680,7640.91
382,22680,7660.96
383,22680,7681.02
384,22684,7701.07
385,22688,7721.12
386,22692,7741.18
387,22696,7761.23
388,22700,7781.29
389,22708,7801.34
390,22720,7821.40
391,22728,7841.45
392,22736,7861.51
393,22740,7881.56
394,22744,7901.62
395,22744,7921.67
396,22748,7941.73
397,22756,7961.78
398,22764,7981.84
399,22772,8001.89
400,22772,8021.95
401,22764,8042.00
402,22736,8062.06
403,22704,8082.11
404,22672,8102.17
405,22644,8122.22
406,22628,8142.28
407,22620,8162.33
408,22624,8182.39
409,22624,8202.44
410,22632,8222.50
411,22640,8242.55
412,22648,8262.61
413,22652,8282.66
414,22664,8302.72
415,22668,8322.77
416,22676,8342.83
417,22684,8362.88
418,22688,8382.94
419,22692,8402.99
420,22700,8423.05
421,22704,8443.10
422,22716,8463.16
423,22724,8483.21
424,22732,8503.26
425,22740,8523.32
426,22756,8543.37
427,22764,8563.43
428,22776,8583.48
429,22788,8603.54
430,22796,8623.59
431,22808,8643.65
432,22816,8663.70
433,22824,8683.76
434,22828,8703.81
435,22836,8723.87
436,22844,8743.92
437,22856,8763.98
438,22864,8784.03
439,22876,8804.09
440,22876,8824.14
441,22856,8844.20
442,22828,8864.25
443,22796,8884.31
444,22756,8904.36
445,22724,8924.42
446,22712,8944.47
447,22704,8964.53
448,22704,8984.58
449,22704,9004.64
450,22704,9024.69
451,22712,9044.75
452,22716,9064.80
453,22724,9084.86
454,22732,9104.91
455,22732,9124.97
456,22736,9145.02
457,22740,9165.08
458,22740,9185.13
459,22740,9205.19
460,22744,9225.24
461,22752,9245.30
462,22756,9265.35
463,22760,9285.40
464,22760,9305.46
465,22756,9325.51
466,22756,9345.57
467,22752,9365.62
468,22752,9385.68
469,22756,9405.73
470,22756,9425.79
471,22756,9445.84
472,22760,9465.90
473,22760,9485.95
474,22760,9506.01
475,22768,9526.06
476,22768,9546.12
477,22776,9566.17
478,22780,9586.23
479,22784,9606.28
480,22792,9626.34
481,22796,9646.39
482,22796,9666.45
483,22776,9686.50
484,22748,9706.56
485,22712,9726.61
486,22676,9746.67
487,22644,9766.72
488,22628,9786.78
489,22620,9806.83
490,22616,9826.89
491,22620,9846.94
492,22628,9867.00
493,22636,9887.05
494,22640,9907.11
495,22652,9927.16
496,22652,9947.22
497,22652,9967.27
498,22648,9987.33
499,22636,10007.38
500,22624,10027.44
501,22616,10047.49
502,22612,10067.54
503,22612,10087.60
504,22612,10107.65
505,22612,10127.71
506,22612,10147.76
507,22612,10167.82
508,22616,10187.87
509,22624,10207.93
510,22632,10227.98
511,22640,10248.04
512,22648,10268.09
513,22656,10288.15
514,22664,10308.20
515,22672,10328.26
516,22680,10348.31
517,22688,10368.37
518,22700,10388.42
519,22708,10408.48
520,22712,10428.53
521,22700,10448.59
522,22680,10468.64
523,22652,10488.70
524,22620,10508.75
525,22596,10528.81
526,22584,10548.86
527,22572,10568.92
528,22572,10588.97
529,22580,10609.03
530,22588,10629.08
531,22600,10649.14
532,22608,10669.19
533,22620,10689.25
534,22624,10709.30
535,22628,10729.36
536,22628,10749.41
537,22628,10769.47
538,22628,10789.52
539,22628,10809.57
540,22632,10829.63
541,22636,10849.68
542,22640,10869.74
543,22644,10889.79
544,22652,10909.85
545,22660,10929.90
546,22668,10949.96
547,22680,10970.01
548,22688,10990.07
549,22700,11010.12
550,22704,11030.18
551,22716,11050.23
552,22720,11070.29
553,22728,11090.34
554,22732,11110.40
555,22732,11130.45
556,22720,11150.51
557,22696,11170.56
558,22664,11190.62
559,22628,11210.67
560,22600,11230.73
561,22580,11250.78
562,22564,11270.84
563,22560,11290.89
564,22556,11310.95
565,22560,11331.00
566,22568,11351.06
567,22572,11371.11
568,22576,11391.17
569,22580,11411.22
570,22580,11431.28
571,22576,11451.33
572,22576,11471.39
573,22572,11491.44
574,22568,11511.50
575,22568,11531.55
576,22572,11551.61
577,22584,11571.66
578,22588,11591.71
579,22600,11611.77
580,22608,11631.82
581,22616,11651.88
582,22620,11671.93
583,22628,11691.99
584,22640,11712.04
585,22652,11732.10
586,22664,11752.15
587,22672,11772.21
588,22684,11792.26
589,22696,11812.32
590,22704,11832.37
591,22708,11852.43
592,22700,11872.48
593,22676,11892.54
594,22640,11912.59
595,22596,11932.65
596,22556,11952.70
597,22532,11972.76
598,22516,11992.81
599,22508,12012.87
600,22512,12032.92
601,22512,12052.98
602,22512,12073.03
603,22516,12093.09
604,22520,12113.14
605,22524,12133.20
606,22524,12153.25
607,22524,12173.31
608,22524,12193.36
609,22520,12213.42
610,22516,12233.47
611,22516,12253.53
612,22520,12273.58
613,22524,12293.64
614,22532,12313.69
615,22544,12333.75
616,22552,12353.80
617,22564,12373.85
618,22576,12393.91
619,22584,12413.96
620,22596,12434.02
621,22604,12454.07
622,22612,12474.13
623,22620,12494.18
624,22632,12514.24
625,22640,12534.29
626,22656,12554.35
627,22660,12574.40
628,22668,12594.46
629,22668,12614.51
630,22652,12634.57
631,22620,12654.62
632,22572,12674.68
633,22528,12694.73
634,22492,12714.79
635,22464,12734.84
636,22456,12754.90
637,22452,12774.95
638,22456,12795.01
639,22460,12815.06
640,22464,12835.12
641,22468,12855.17
642,22476,12875.23
643,22476,12895.28
644,22480,12915.34
645,22484,12935.39
646,22488,12955.45
647,22488,12975.50
648,22488,12995.56
649,22492,13015.61
650,22496,13035.67
651,22504,13055.72
652,22512,13075.78
653,22520,13095.83
654,22528,13115.89
655,22540,13135.94
656,22552,13155.99
657,22564,13176.05
658,22572,13196.10
659,22584,13216.16
660,22592,13236.21
661,22600,13256.27
662,22604,13276.32
663,22612,13296.38
664,22616,13316.43
665,22624,13336.49
666,22632,13356.54
667,22636,13376.60
668,22648,13396.65
669,22656,13416.71
670,22652,13436.76
671,22628,13456.82
672,22592,13476.87
673,22548,13496.93
674,22504,13516.98
675,22476,13537.04
676,22456,13557.09
677,22452,13577.15
678,22456,13597.20
679,22460,13617.26
680,22468,13637.31
681,22476,13657.37
682,22484,13677.42
683,22488,13697.48
684,22492,13717.53
685,22492,13737.59
686,22488,13757.64
687,22488,13777.70
688,22488,13797.75
689,22488,13817.81
690,22488,13837.86
691,22492,13857.92
692,22500,13877.97
693,22508,13898.02
694,22516,13918.08
695,22528,13938.13
696,22540,13958.19
697,22552,13978.24
698,22564,13998.30
699,22576,14018.35
700,22580,14038.41
701,22588,14058.46
702,22596,14078.52
703,22600,14098.57
704,22608,14118.63
705,22616,14138.68
706,22628,14158.74
707,22632,14178.79
708,22640,14198.85
709,22636,14218.90
710,22620,14238.96
711,22580,14259.01
712,22536,14279.07
713,22496,14299.12
714,22464,14319.18
715,22448,14339.23
716,22444,14359.29
717,22440,14379.34
718,22444,14399.40
719,22452,14419.45
720,22464,14439.51
721,22476,14459.56
722,22484,14479.62
723,22488,14499.67
724,22484,14519.73
725,22484,14539.78
726,22476,14559.84
727,22476,14579.89
728,22472,14599.95
729,22468,14620.00
730,22472,14640.06
731,22476,14660.11
732,22480,14680.16
733,22488,14700.22
734,22500,14720.27
735,22508,14740.33
736,22516,14760.38
737,22520,14780.44
738,22528,14800.49
739,22532,14820.55
740,22544,14840.60
741,22544,14860.66
742,22552,14880.71
743,22556,14900.77
744,22564,14920.82
745,22556,14940.88
746,22528,14960.93
747,22496,14980.99
748,22456,15001.04
749,22432,15021.10
750,22408,15041.15
751,22396,15061.21
752,22400,15081.26
753,22408,15101.32
754,22420,15121.37
755,22436,15141.43
756,22452,15161.48
757,22460,15181.54
758,22468,15201.59
759,22476,15221.65
760,22472,15241.70
761,22472,15261.76
762,22468,15281.81
763,22464,15301.87
764,22472,15321.92
765,22472,15341.98
766,22484,15362.03
767,22496,15382.09
768,22508,15402.14
769,22516,15422.20
770,22528,15442.25
771,22536,15462.30
772,22548,15482.36
773,22560,15502.41
774,22568,15522.47
775,22580,15542.52
776,22588,15562.58
777,22596,15582.63
778,22584,15602.69
779,22548,15622.74
780,22496,15642.80
781,22440,15662.85
782,22392,15682.91
783,22356,15702.96
784,22340,15723.02
785,22332,15743.07
786,22336,15763.13
787,22344,15783.18
788,22360,15803.24
789,22372,15823.29
790,22388,15843.35
791,22404,15863.40
792,22412,15883.46
793,22424,15903.51
794,22432,15923.57
795,22428,15943.62
796,22424,15963.68
797,22420,15983.73
798,22424,16003.79
799,22428,16023.84
800,22436,16043.90
801,22444,16063.95
802,22452,16084.01
803,22464,16104.06
804,22476,16124.12
805,22488,16144.17
806,22504,16164.23
807,22516,16184.28
808,22536,16204.34
809,22552,16224.39
810,22568,16244.44
811,22576,16264.50
812,22584,16284.55
813,22576,16304.61
814,22560,16324.66
815,22516,16344.72
816,22464,16364.77
817,22404,16384.83
818,22360,16404.88
819,22336,16424.94
820,22324,16444.99
821,22312,16465.05
822,22304,16485.10
823,22296,16505.16
824,22292,16525.21
825,22288,16545.27
826,22288,16565.32
827,22292,16585.38
828,22292,16605.43
829,22288,16625.49
830,22280,16645.54
831,22276,16665.60
832,22272,16685.65
833,22268,16705.71
834,22268,16725.76
835,22276,16745.82
836,22280,16765.87
837,22292,16785.93
838,22300,16805.98
839,22312,16826.04
840,22324,16846.09
841,22332,16866.15
842,22340,16886.20
843,22352,16906.26
844,22360,16926.31
845,22368,16946.37
846,22380,16966.42
847,22392,16986.47
848,22404,17006.53
849,22416,17026.58
850,22428,17046.64
851,22436,17066.69
852,22448,17086.75
853,22448,17106.80
854,22416,17126.86
855,22372,17146.91
856,22316,17166.97
857,22268,17187.02
858,22236,17207.08
859,22220,17227.13
860,22216,17247.19
861,22220,17267.24
862,22224,17287.30
863,22228,17307.35
864,22232,17327.41
865,22240,17347.46
866,22248,17367.52
867,22256,17387.57
868,22260,17407.63
869,22260,17427.68
870,22264,17447.74
871,22264,17467.79
872,22268,17487.85
873,22276,17507.90
874,22280,17527.96
875,22292,17548.01
876,22308,17568.07
877,22324,17588.12
878,22336,17608.18
879,22348,17628.23
880,22368,17648.29
881,22380,17668.34
882,22392,17688.40
883,22408,17708.45
884,22420,17728.51
885,22432,17748.56
886,22444,17768.61
887,22460,17788.67
888,22476,17808.72
889,22488,17828.78
890,22496,17848.83
891,22508,17868.89
892,22516,17888.94
893,22524,17909.00
894,22536,17929.05
895,22548,17949.11
896,22544,17969.16
897,22520,17989.22
898,22468,18009.27
899,22408,18029.33
900,22348,18049.38
901,22304,18069.44
902,22272,18089.49
903,22256,18109.55
904,22256,18129.60
905,22264,18149.66
906,22272,18169.71
907,22284,18189.77
908,22296,18209.82
909,22308,18229.88
910,22316,18249.93
911,22320,18269.99
912,22320,18290.04
913,22316,18310.10
914,22316,18330.15
915,22316,18350.21
916,22320,18370.26
917,22324,18390.32
918,22332,18410.37
919,22340,18430.43
920,22352,18450.48
921,22364,18470.54
922,22376,18490.59
923,22388,18510.65
924,22400,18530.70
925,22416,18550.75
926,22424,18570.81
927,22436,18590.86
928,22444,18610.92
929,22452,18630.97
930,22456,18651.03
931,22460,18671.08
932,22468,18691.14
933,22476,18711.19
934,22484,18731.25
935,22496,18751.30
936,22496,18771.36
937,22480,18791.41
938,22448,18811.47
939,22396,18831.52
940,22344,18851.58
941,22300,18871.63
942,22268,18891.69
943,22256,18911.74
944,22256,18931.80
945,22264,18951.85
946,22276,18971.91
947,22288,18991.96
948,22304,19012.02
949,22316,19032.07
950,22324,19052.13
951,22332,19072.18
952,22332,19092.24
953,22332,19112.29
954,22332,19132.35
955,22328,19152.40
956,22328,19172.46
957,22328,19192.51
958,22336,19212.57
959,22344,19232.62
960,22356,19252.68
961,22364,19272.73
962,22376,19292.79
963,22388,19312.84
964,22400,19332.89
965,22416,19352.95
966,22428,19373.00
967,22436,19393.06
968,22444,19413.11
969,22456,19433.17
970,22460,19453.22
971,22468,19473.28
972,22476,19493.33
973,22484,19513.39
974,22484,19533.44
975,22464,19553.50
976,22424,19573.55
977,22376,19593.61
978,22320,19613.66
979,22284,19633.72
980,22256,19653.77
981,22248,19673.83
982,22248,19693.88
983,22260,19713.94
984,22272,19733.99
985,22292,19754.05
986,22312,19774.10
987,22324,19794.16
988,22332,19814.21
989,22336,19834.27
990,22332,19854.32
991,22332,19874.38
992,22324,19894.43
993,22320,19914.49
994,22324,19934.54
995,22324,19954.60
996,22332,19974.65
997,22340,19994.71
998,22344,20014.76
999,22356,20034.82
1000,22368,20054.87
1001,22376,20074.92
1002,22384,20094.98
1003,22392,20115.03
1004,22396,20135.09
1005,22404,20155.14
1006,22408,20175.20
1007,22412,20195.25
1008,22416,20215.31
1009,22408,20235.36
1010,22380,20255.42
1011,22332,20275.47
1012,22268,20295.53
1013,22208,20315.58
1014,22164,20335.64
1015,22132,20355.69
1016,22116,20375.75
1017,22116,20395.80
1018,22120,20415.86
1019,22128,20435.91
1020,22136,20455.97
1021,22148,20476.02
1022,22160,20496.08
1023,22168,20516.13
1024,22176,20536.19
1025,22180,20556.24
1026,22184,20576.30
1027,22180,20596.35
1028,22184,20616.41
1029,22184,20636.46
1030,22196,20656.52
1031,22208,20676.57
1032,22228,20696.63
1033,22244,20716.68
1034,22264,20736.74
1035,22280,20756.79
1036,22296,20776.85
1037,22308,20796.90
1038,22316,20816.96
1039,22324,20837.01
1040,22332,20857.06
1041,22344,20877.12
1042,22356,20897.17
1043,22364,20917.23
1044,22376,20937.28
1045,22388,20957.34
1046,22392,20977.39
1047,22380,20997.45
1048,22340,21017.50
1049,22276,21037.56
1050,22208,21057.61
1051,22156,21077.67
1052,22124,21097.72
1053,22104,21117.78
1054,22096,21137.83
1055,22096,21157.89
1056,22100,21177.94
1057,22100,21198.00
1058,22104,21218.05
1059,22108,21238.11
1060,22116,21258.16
1061,22124,21278.22
1062,22132,21298.27
1063,22136,21318.33
1064,22136,21338.38
1065,22136,21358.44
1066,22136,21378.49
1067,22140,21398.55
1068,22144,21418.60
1069,22156,21438.66
1070,22172,21458.71
1071,22188,21478.77
1072,22200,21498.82
1073,22216,21518.88
1074,22232,21538.93
1075,22244,21558.99
1076,22256,21579.04
1077,22272,21599.10
1078,22284,21619.15
1079,22296,21639.20
1080,22308,21659.26
1081,22324,21679.31
1082,22336,21699.37
1083,22352,21719.42
1084,22364,21739.48
1085,22352,21759.53
1086,22312,21779.59
1087,22252,21799.64
1088,22180,21819.70
1089,22120,21839.75
1090,22080,21859.81
1091,22052,21879.86
1092,22044,21899.92
1093,22044,21919.97
1094,22048,21940.03
1095,22052,21960.08
1096,22060,21980.14
1097,22072,22000.19
1098,22084,22020.25
1099,22096,22040.30
1100,22104,22060.36
1101,22112,22080.41
1102,22112,22100.47
1103,22116,22120.52
1104,22116,22140.58
1105,22120,22160.63
1106,22128,22180.69
1107,22140,22200.74
1108,22152,22220.80
1109,22168,22240.85
1110,22180,22260.91
1111,22196,22280.96
1112,22220,22301.02
1113,22236,22321.07
1114,22248,22341.13
1115,22260,22361.18
1116,22276,22381.24
1117,22288,22401.29
1118,22296,22421.34
1119,22308,22441.40
1120,22320,22461.45
1121,22328,22481.51
1122,22340,22501.56
1123,22352,22521.62
1124,22360,22541.67
1125,22372,22561.73
1126,22368,22581.78
1127,22336,22601.84
1128,22280,22621.89
1129,22212,22641.95
1130,22144,22662.00
1131,22092,22682.06
1132,22060,22702.11
1133,22044,22722.17
1134,22040,22742.22
1135,22048,22762.28
1136,22060,22782.33
1137,22072,22802.39
1138,22088,22822.44
1139,22100,22842.50
1140,22112,22862.55
1141,22116,22882.61
1142,22120,22902.66
1143,22116,22922.72
1144,22108,22942.77
1145,22108,22962.83
1146,22112,22982.88
1147,22116,23002.94
1148,22128,23022.99
1149,22144,23043.05
1150,22156,23063.10
1151,22176,23083.16
1152,22192,23103.21
1153,22212,23123.27
1154,22228,23143.32
1155,22244,23163.37
1156,22252,23183.43
1157,22268,23203.48
1158,22280,23223.54
1159,22288,23243.59
1160,22292,23263.65
1161,22296,23283.70
1162,22296,23303.76
1163,22304,23323.81
1164,22308,23343.87
1165,22292,23363.92
1166,22244,23383.98
1167,22180,23404.03
1168,22116,23424.09
1169,22064,23444.14
1170,22024,23464.20
1171,22008,23484.25
1172,22004,23504.31
1173,22012,23524.36
1174,22032,23544.42
1175,22044,23564.47
1176,22064,23584.53
1177,22088,23604.58
1178,22100,23624.64
1179,22112,23644.69
1180,22112,23664.75
1181,22112,23684.80
1182,22108,23704.86
1183,22104,23724.91
1184,22104,23744.97
1185,22112,23765.02
1186,22120,23785.08
1187,22132,23805.13
1188,22148,23825.19
1189,22164,23845.24
1190,22180,23865.30
1191,22196,23885.35
1192,22212,23905.41
1193,22228,23925.46
1194,22240,23945.51
1195,22252,23965.57
1196,22264,23985.62
1197,22276,24005.68
1198,22288,24025.73
1199,22300,24045.79
1200,22308,24065.84
1201,22312,24085.90
1202,22296,24105.95
1203,22252,24126.01
1204,22196,24146.06
1205,22128,24166.12
1206,22072,24186.17
1207,22036,24206.23
1208,22024,24226.28
1209,22024,24246.34
1210,22036,24266.39
1211,22048,24286.45
1212,22060,24306.50
1213,22076,24326.56
1214,22092,24346.61
1215,22104,24366.67
1216,22108,24386.72
1217,22100,24406.78
1218,22096,24426.83
1219,22084,24446.89
1220,22068,24466.94
1221,22068,24487.00
1222,22068,24507.05
1223,22076,24527.11
1224,22092,24547.16
1225,22104,24567.22
1226,22120,24587.27
1227,22136,24607.33
1228,22148,24627.38
1229,22164,24647.44
1230,22176,24667.49
1231,22188,24687.55
1232,22200,24707.60
1233,22208,24727.65
1234,22220,24747.71
1235,22236,24767.76
1236,22248,24787.82
1237,22256,24807.87
1238,22268,24827.93
1239,22280,24847.98
1240,22288,24868.04
1241,22292,24888.09
1242,22268,24908.15
1243,22212,24928.20
1244,22136,24948.26
1245,22060,24968.31
1246,21996,24988.37
1247,21956,25008.42
1248,21936,25028.48
1249,21932,25048.53
1250,21940,25068.59
1251,21948,25088.64
1252,21960,25108.70
1253,21968,25128.75
1254,21980,25148.81
1255,21992,25168.86
1256,22000,25188.92
1257,22008,25208.97
1258,22008,25229.03
1259,22008,25249.08
1260,22008,25269.14
1261,22008,25289.19
1262,22016,25309.25
1263,22028,25329.30
1264,22040,25349.36
1265,22056,25369.41
1266,22072,25389.47
1267,22088,25409.52
1268,22104,25429.58
1269,22120,25449.63
1270,22132,25469.69
1271,22148,25489.74
1272,22160,25509.79
1273,22180,25529.85
1274,22188,25549.90
1275,22200,25569.96
1276,22212,25590.01
1277,22224,25610.07
1278,22232,25630.12
1279,22240,25650.18
1280,22252,25670.23
1281,22260,25690.29
1282,22248,25710.34
1283,22200,25730.40
1284,22124,25750.45
1285,22048,25770.51
1286,21976,25790.56
1287,21936,25810.62
1288,21912,25830.67
1289,21908,25850.73
1290,21916,25870.78
1291,21932,25890.84
1292,21944,25910.89
1293,21960,25930.95
1294,21976,25951.00
1295,21992,25971.06
1296,22000,25991.11
1297,22008,26011.17
1298,22012,26031.22
1299,22008,26051.28
1300,22008,26071.33
1301,22016,26091.39
1302,22024,26111.44
1303,22032,26131.50
1304,22048,26151.55
1305,22060,26171.61
1306,22080,26191.66
1307,22100,26211.72
1308,22116,26231.77
1309,22136,26251.82
1310,22156,26271.88
1311,22176,26291.93
1312,22196,26311.99
1313,22208,26332.04
1314,22228,26352.10
1315,22240,26372.15
1316,22256,26392.21
1317,22272,26412.26
1318,22280,26432.32
1319,22296,26452.37
1320,22304,26472.43
1321,22316,26492.48
1322,22328,26512.54
1323,22340,26532.59
1324,22348,26552.65
1325,22324,26572.70
1326,22268,26592.76
1327,22192,26612.81
1328,22112,26632.87
1329,22048,26652.92
1330,22000,26672.98
1331,21980,26693.03
1332,21976,26713.09
1333,21984,26733.14
1334,22000,26753.20
1335,22024,26773.25
1336,22040,26793.31
1337,22060,26813.36
1338,22076,26833.42
1339,22080,26853.47
1340,22080,26873.53
1341,22080,26893.58
1342,22076,26913.64
1343,22072,26933.69
1344,22076,26953.75
1345,22076,26973.80
1346,22084,26993.86
1347,22096,27013.91
1348,22108,27033.96
1349,22120,27054.02
1350,22136,27074.07
1351,22152,27094.13
1352,22168,27114.18
1353,22180,27134.24
1354,22192,27154.29
1355,22212,27174.35
1356,22224,27194.40
1357,22236,27214.46
1358,22240,27234.51
1359,22248,27254.57
1360,22256,27274.62
1361,22268,27294.68
1362,22280,27314.73
1363,22292,27334.79
1364,22288,27354.84
1365,22256,27374.90
1366,22200,27394.95
1367,22128,27415.01
1368,22056,27435.06
1369,22004,27455.12
1370,21972,27475.17
1371,21964,27495.23
1372,21972,27515.28
1373,21988,27535.34
1374,22008,27555.39
1375,22032,27575.45
1376,22056,27595.50
1377,22072,27615.56
1378,22088,27635.61
1379,22088,27655.67
1380,22092,27675.72
1381,22088,27695.78
1382,22080,27715.83
1383,22080,27735.89
1384,22080,27755.94
1385,22084,27776.00
1386,22092,27796.05
1387,22108,27816.10
1388,22120,27836.16
1389,22136,27856.21
1390,22152,27876.27
1391,22168,27896.32
1392,22188,27916.38
1393,22204,27936.43
1394,22216,27956.49
1395,22228,27976.54
1396,22236,27996.60
1397,22248,28016.65
1398,22256,28036.71
1399,22268,28056.76
1400,22276,28076.82
1401,22256,28096.87
1402,22208,28116.93
1403,22144,28136.98
1404,22072,28157.04
1405,22020,28177.09
1406,21980,28197.15
1407,21964,28217.20
1408,21964,28237.26
1409,21976,28257.31
1410,21992,28277.37
1411,22012,28297.42
1412,22036,28317.48
1413,22056,28337.53
1414,22076,28357.59
1415,22084,28377.64
1416,22088,28397.70
1417,22080,28417.75
1418,22072,28437.81
1419,22064,28457.86
1420,22064,28477.92
1421,22064,28497.97
1422,22072,28518.03
1423,22084,28538.08
1424,22100,28558.14
1425,22120,28578.19
1426,22136,28598.24
1427,22152,28618.30
1428,22164,28638.35
1429,22180,28658.41
1430,22192,28678.46
1431,22204,28698.52
1432,22212,28718.57
1433,22232,28738.63
1434,22228,28758.68
1435,22188,28778.74
1436,22124,28798.79
1437,22040,28818.85
1438,21972,28838.90
1439,21916,28858.96
1440,21892,28879.01
1441,21884,28899.07
1442,21892,28919.12
1443,21904,28939.18
1444,21920,28959.23
1445,21936,28979.29
1446,21944,28999.34
1447,21956,29019.40
1448,21964,29039.45
1449,21964,29059.51
1450,21960,29079.56
1451,21952,29099.62
1452,21944,29119.67
1453,21940,29139.73
1454,21944,29159.78
1455,21956,29179.84
1456,21976,29199.89
1457,21996,29219.95
1458,22028,29240.00
1459,22048,29260.06
1460,22064,29280.11
1461,22076,29300.17
1462,22088,29320.22
1463,22100,29340.27
1464,22116,29360.33
1465,22128,29380.38
1466,22144,29400.44
1467,22156,29420.49
1468,22164,29440.55
1469,22160,29460.60
1470,22124,29480.66
1471,22060,29500.71
1472,21976,29520.77
1473,21900,29540.82
1474,21840,29560.88
1475,21804,29580.93
1476,21792,29600.99
1477,21792,29621.04
1478,21800,29641.10
1479,21808,29661.15
1480,21812,29681.21
1481,21812,29701.26
1482,21820,29721.32
1483,21824,29741.37
1484,21836,29761.43
1485,21844,29781.48
1486,21848,29801.54
1487,21852,29821.59
1488,21852,29841.65
1489,21860,29861.70
1490,21872,29881.76
1491,21888,29901.81
1492,21904,29921.87
1493,21924,29941.92
1494,21948,29961.98
1495,21972,29982.03
1496,21992,30002.09
1497,22016,30022.14
1498,22040,30042.20
1499,22060,30062.25
1500,22080,30082.31
1501,22104,30102.36
1502,22124,30122.41
1503,22144,30142.47
1504,22164,30162.52
1505,22176,30182.58
1506,22180,30202.63
1507,22148,30222.69
1508,22100,30242.74
1509,22048,30262.80
1510,22000,30282.85
1511,21968,30302.91
1512,21952,30322.96
1513,21952,30343.02
1514,21964,30363.07
1515,21976,30383.13
1516,21992,30403.18
1517,22012,30423.24
1518,22024,30443.29
1519,22040,30463.35
1520,22052,30483.40
1521,22064,30503.46
1522,22072,30523.51
1523,22072,30543.57
1524,22080,30563.62
1525,22084,30583.68
1526,22096,30603.73
1527,22108,30623.79
1528,22120,30643.84
1529,22136,30663.90
1530,22152,30683.95
1531,22168,30704.01
1532,22184,30724.06
1533,22200,30744.12
1534,22220,30764.17
1535,22236,30784.23
1536,22256,30804.28
1537,22272,30824.34
1538,22288,30844.39
1539,22296,30864.45
1540,22312,30884.50
1541,22324,30904.55
1542,22336,30924.61
1543,22352,30944.66
1544,22368,30964.72
1545,22376,30984.77
1546,22368,31004.83
1547,22344,31024.88
1548,22312,31044.94
1549,22268,31064.99
1550,22236,31085.05
1551,22212,31105.10
1552,22200,31125.16
1553,22204,31145.21
1554,22212,31165.27
1555,22216,31185.32
1556,22232,31205.38
1557,22240,31225.43
1558,22252,31245.49
1559,22260,31265.54
1560,22264,31285.60
1561,22268,31305.65
1562,22268,31325.71
1563,22264,31345.76
1564,22268,31365.82
1565,22272,31385.87
1566,22276,31405.93
1567,22284,31425.98
1568,22296,31446.04
1569,22308,31466.09
1570,22320,31486.15
1571,22336,31506.20
1572,22348,31526.26
1573,22360,31546.31
1574,22372,31566.37
1575,22384,31586.42
1576,22396,31606.48
1577,22408,31626.53
1578,22416,31646.59
1579,22428,31666.64
1580,22440,31686.69
1581,22452,31706.75
1582,22460,31726.80
1583,22460,31746.86
1584,22440,31766.91
1585,22420,31786.97
1586,22392,31807.02
1587,22368,31827.08
1588,22348,31847.13
1589,22336,31867.19
1590,22332,31887.24
1591,22336,31907.30
1592,22340,31927.35
1593,22348,31947.41
1594,22360,31967.46
1595,22372,31987.52
1596,22380,32007.57
1597,22388,32027.63
1598,22392,32047.68
1599,22396,32067.74
1600,22400,32087.79
1601,22404,32107.85
1602,22404,32127.90
1603,22404,32147.96
1604,22412,32168.01
1605,22424,32188.07
1606,22436,32208.12
1607,22444,32228.18
1608,22456,32248.23
1609,22468,32268.29
1610,22476,32288.34
1611,22488,32308.40
1612,22496,32328.45
1613,22508,32348.51
1614,22516,32368.56
1615,22524,32388.62
1616,22536,32408.67
1617,22540,32428.72
1618,22548,32448.78
1619,22544,32468.83
1620,22532,32488.89
1621,22508,32508.94
1622,22480,32529.00
1623,22456,32549.05
1624,22436,32569.11
1625,22428,32589.16
1626,22424,32609.22
1627,22428,32629.27
1628,22436,32649.33
1629,22440,32669.38
1630,22444,32689.44
1631,22448,32709.49
1632,22452,32729.55
1633,22452,32749.60
1634,22452,32769.66
1635,22448,32789.71
1636,22448,32809.77
1637,22444,32829.82
1638,22448,32849.88
1639,22452,32869.93
1640,22456,32889.99
1641,22460,32910.04
1642,22464,32930.10
1643,22472,32950.15
1644,22484,32970.21
1645,22488,32990.26
1646,22500,33010.32
1647,22504,33030.37
1648,22516,33050.43
1649,22524,33070.48
1650,22532,33090.54
1651,22544,33110.59
1652,22552,33130.65
1653,22564,33150.70
1654,22576,33170.76
1655,22588,33190.81
1656,22600,33210.86
1657,22600,33230.92
1658,22588,33250.97
1659,22564,33271.03
1660,22540,33291.08
1661,22524,33311.14
1662,22512,33331.19
1663,22508,33351.25
1664,22512,33371.30
1665,22516,33391.36
1666,22524,33411.41
1667,22528,33431.47
1668,22536,33451.52
1669,22544,33471.58
1670,22548,33491.63
1671,22556,33511.69
1672,22560,33531.74
1673,22560,33551.80
1674,22564,33571.85
1675,22564,33591.91
1676,22568,33611.96
1677,22572,33632.02
1678,22572,33652.07
1679,22580,33672.13
1680,22584,33692.18
1681,22588,33712.24
1682,22592,33732.29
1683,22600,33752.35
1684,22612,33772.40
1685,22624,33792.46
1686,22632,33812.51
1687,22644,33832.57
1688,22652,33852.62
1689,22664,33872.68
1690,22668,33892.73
1691,22676,33912.79
1692,22688,33932.84
1693,22700,33952.90
1694,22708,33972.95
1695,22716,33993.00
1696,22724,34013.06
1697,22736,34033.11
1698,22740,34053.17
1699,22732,34073.22
1700,22720,34093.28
1701,22700,34113.33
1702,22680,34133.39
1703,22664,34153.44
1704,22652,34173.50
1705,22652,34193.55
1706,22656,34213.61
1707,22660,34233.66
1708,22664,34253.72
1709,22664,34273.77
1710,22672,34293.83
1711,22676,34313.88
1712,22684,34333.94
1713,22688,34353.99
1714,22692,34374.05
1715,22696,34394.10
1716,22700,34414.16
1717,22708,34434.21
1718,22712,34454.27
1719,22720,34474.32
1720,22728,34494.38
1721,22736,34514.43
1722,22744,34534.49
1723,22756,34554.54
1724,22768,34574.60
1725,22776,34594.65
1726,22788,34614.71
1727,22796,34634.76
1728,22800,34654.82
1729,22808,34674.87
1730,22816,34694.93
1731,22828,34714.98
1732,22836,34735.04
1733,22844,34755.09
1734,22856,34775.14
1735,22868,34795.20
1736,22872,34815.25
1737,22880,34835.31
1738,22892,34855.36
1739,22900,34875.42
1740,22912,34895.47
1741,22920,34915.53
1742,22924,34935.58
1743,22920,34955.64
1744,22908,34975.69
1745,22896,34995.75
1746,22880,35015.80
1747,22868,35035.86
1748,22860,35055.91
1749,22856,35075.97
1750,22852,35096.02
1751,22856,35116.08
1752,22864,35136.13
1753,22872,35156.19
1754,22880,35176.24
1755,22888,35196.30
1756,22892,35216.35
1757,22892,35236.41
1758,22896,35256.46
1759,22896,35276.52
1760,22896,35296.57
1761,22896,35316.63
1762,22900,35336.68
1763,22904,35356.74
1764,22908,35376.79
1765,22912,35396.85
1766,22924,35416.90
1767,22928,35436.96
1768,22932,35457.01
1769,22936,35477.07
1770,22940,35497.12
1771,22944,35517.17
1772,22952,35537.23
1773,22956,35557.28
1774,22960,35577.34
1775,22964,35597.39
1776,22972,35617.45
1777,22976,35637.50
1778,22980,35657.56
1779,22984,35677.61
1780,22988,35697.67
1781,22988,35717.72
1782,22984,35737.78
1783,22976,35757.83
1784,22960,35777.89
1785,22944,35797.94
1786,22932,35818.00
1787,22924,35838.05
1788,22920,35858.11
1789,22920,35878.16
1790,22920,35898.22
1791,22920,35918.27
1792,22924,35938.33
1793,22928,35958.38
1794,22932,35978.44
1795,22932,35998.49
1796,22932,36018.55
1797,22928,36038.60
1798,22928,36058.66
1799,22920,36078.71
1800,22916,36098.77
1801,22912,36118.82
1802,22912,36138.88
1803,22916,36158.93
1804,22916,36178.99
1805,22924,36199.04
1806,22928,36219.10
1807,22928,36239.15
1808,22928,36259.21
1809,22932,36279.26
1810,22932,36299.31
1811,22936,36319.37
1812,22936,36339.42
1813,22940,36359.48
1814,22940,36379.53
1815,22940,36399.59
1816,22944,36419.64
1817,22936,36439.70
1818,22920,36459.75
1819,22900,36479.81
1820,22872,36499.86
1821,22848,36519.92
1822,22828,36539.97
1823,22816,36560.03
1824,22804,36580.08
1825,22796,36600.14
1826,22800,36620.19
1827,22792,36640.25
1828,22792,36660.30
1829,22792,36680.36
1830,22788,36700.41
1831,22788,36720.47
1832,22780,36740.52
1833,22772,36760.58
1834,22768,36780.63
1835,22760,36800.69
1836,22756,36820.74
1837,22752,36840.80
1838,22748,36860.85
1839,22748,36880.91
1840,22744,36900.96
1841,22736,36921.02
1842,22740,36941.07
1843,22736,36961.13
1844,22736,36981.18
1845,22736,37001.24
1846,22736,37021.29
1847,22736,37041.35
1848,22732,37061.40
1849,22728,37081.45
1850,22728,37101.51
1851,22728,37121.56
1852,22724,37141.62
1853,22712,37161.67
1854,22688,37181.73
1855,22656,37201.78
1856,22620,37221.84
1857,22588,37241.89
1858,22568,37261.95
1859,22552,37282.00
1860,22544,37302.06
1861,22544,37322.11
1862,22548,37342.17
1863,22552,37362.22
1864,22556,37382.28
1865,22556,37402.33
1866,22560,37422.39
1867,22560,37442.44
1868,22560,37462.50
1869,22556,37482.55
1870,22556,37502.61
1871,22556,37522.66
1872,22556,37542.72
1873,22560,37562.77
1874,22564,37582.83
1875,22572,37602.88
1876,22576,37622.94
1877,22584,37642.99
1878,22592,37663.05
1879,22596,37683.10
1880,22600,37703.16
1881,22612,37723.21
1882,22620,37743.27
1883,22628,37763.32
1884,22636,37783.38
1885,22640,37803.43
1886,22644,37823.49
1887,22648,37843.54
1888,22648,37863.59
1889,22636,37883.65
1890,22612,37903.70
1891,22584,37923.76
1892,22560,37943.81
1893,22544,37963.87
1894,22532,37983.92
1895,22532,38003.98
1896,22532,38024.03
1897,22532,38044.09
1898,22540,38064.14
1899,22548,38084.20
1900,22556,38104.25
1901,22564,38124.31
1902,22576,38144.36
1903,22580,38164.42
1904,22588,38184.47
1905,22592,38204.53
1906,22596,38224.58
1907,22604,38244.64
1908,22608,38264.69
1909,22616,38284.75
1910,22624,38304.80
1911,22636,38324.86
1912,22644,38344.91
1913,22656,38364.97
1914,22664,38385.02
1915,22672,38405.08
1916,22680,38425.13
1917,22692,38445.19
1918,22700,38465.24
1919,22708,38485.30
1920,22716,38505.35
1921,22724,38525.41
1922,22732,38545.46
1923,22744,38565.52
1924,22752,38585.57
1925,22748,38605.62
1926,22740,38625.68
1927,22728,38645.73
1928,22708,38665.79
1929,22692,38685.84
1930,22680,38705.90
1931,22676,38725.95
1932,22676,38746.01
1933,22680,38766.06
1934,22680,38786.12
1935,22684,38806.17
1936,22692,38826.23
1937,22696,38846.28
1938,22700,38866.34
1939,22704,38886.39
1940,22704,38906.45
1941,22708,38926.50
1942,22708,38946.56
1943,22708,38966.61
1944,22712,38986.67
1945,22716,39006.72
1946,22720,39026.78
1947,22724,39046.83
1948,22732,39066.89
1949,22740,39086.94
1950,22748,39107.00
1951,22756,39127.05
1952,22764,39147.11
1953,22772,39167.16
1954,22780,39187.22
1955,22788,39207.27
1956,22792,39227.33
1957,22796,39247.38
1958,22804,39267.44
1959,22812,39287.49
1960,22820,39307.55
1961,22828,39327.60
1962,22832,39347.66
1963,22832,39367.71
1964,22824,39387.76
1965,22808,39407.82
1966,22792,39427.87
1967,22776,39447.93
1968,22760,39467.98
1969,22756,39488.04
1970,22752,39508.09
1971,22756,39528.15
1972,22756,39548.20
1973,22760,39568.26
1974,22768,39588.31
1975,22776,39608.37
1976,22780,39628.42
1977,22784,39648.48
1978,22788,39668.53
1979,22788,39688.59
1980,22788,39708.64
1981,22788,39728.70
1982,22788,39748.75
1983,22788,39768.81
1984,22792,39788.86
1985,22796,39808.92
1986,22796,39828.97
1987,22804,39849.03
1988,22808,39869.08
1989,22816,39889.14
1990,22820,39909.19
1991,22820,39929.25
1992,22828,39949.30
1993,22832,39969.36
1994,22832,39989.41
1995,22836,40009.47
1996,22840,40029.52
1997,22844,40049.58
1998,22848,40069.63
1999,22852,40089.69
2000,22856,40109.74
2001,22848,40129.80
2002,22836,40149.85
2003,22820,40169.90
2004,22800,40189.96
2005,22788,40210.01
2006,22780,40230.07
2007,22780,40250.12
2008,22784,40270.18
2009,22788,40290.23
2010,22796,40310.29
2011,22800,40330.34
2012,22804,40350.40
2013,22812,40370.45
2014,22812,40390.51
2015,22816,40410.56
2016,22820,40430.62
2017,22820,40450.67
2018,22820,40470.73
2019,22824,40490.78
2020,22824,40510.84
2021,22832,40530.89
2022,22832,40550.95
2023,22836,40571.00
2024,22844,40591.06
2025,22848,40611.11
2026,22856,40631.17
2027,22860,40651.22
2028,22868,40671.28
2029,22872,40691.33
2030,22880,40711.39
2031,22884,40731.44
2032,22892,40751.50
2033,22896,40771.55
2034,22900,40791.61
2035,22896,40811.66
2036,22888,40831.72
2037,22876,40851.77
2038,22860,40871.83
2039,22840,40891.88
2040,22824,40911.94
2041,22808,40931.99
2042,22796,40952.04
2043,22792,40972.10
2044,22788,40992.15
2045,22788,41012.21
2046,22792,41032.26
2047,22796,41052.32
2048,22800,41072.37
2049,22800,41092.43
2050,22800,41112.48
2051,22800,41132.54
2052,22800,41152.59
2053,22796,41172.65
2054,22792,41192.70
2055,22784,41212.76
2056,22788,41232.81
2057,22784,41252.87
2058,22788,41272.92
2059,22792,41292.98
2060,22800,41313.03
2061,22808,41333.09
2062,22812,41353.14
2063,22820,41373.20
2064,22820,41393.25
2065,22824,41413.31
2066,22828,41433.36
2067,22832,41453.42
2068,22836,41473.47
2069,22840,41493.53
2070,22828,41513.58
2071,22812,41533.64
2072,22784,41553.69
2073,22752,41573.75
2074,22720,41593.80
2075,22696,41613.86
2076,22684,41633.91
2077,22676,41653.97
2078,22672,41674.02
2079,22672,41694.07
2080,22676,41714.13
2081,22676,41734.18
2082,22680,41754.24
2083,22680,41774.29
2084,22680,41794.35
2085,22680,41814.40
2086,22680,41834.46
2087,22680,41854.51
2088,22676,41874.57
2089,22680,41894.62
2090,22680,41914.68
2091,22684,41934.73
2092,22684,41954.79
2093,22684,41974.84
2094,22692,41994.90
2095,22696,42014.95
2096,22696,42035.01
2097,22704,42055.06
2098,22712,42075.12
2099,22716,42095.17
2100,22724,42115.23
2101,22732,42135.28
2102,22740,42155.34
2103,22748,42175.39
2104,22752,42195.45
2105,22756,42215.50
2106,22756,42235.56
2107,22736,42255.61
2108,22712,42275.67
2109,22676,42295.72
2110,22644,42315.78
2111,22616,42335.83
2112,22604,42355.89
2113,22600,42375.94
2114,22600,42396.00
2115,22600,42416.05
2116,22604,42436.11
2117,22612,42456.16
2118,22620,42476.21
2119,22628,42496.27
2120,22632,42516.32
2121,22636,42536.38
2122,22640,42556.43
2123,22636,42576.49
2124,22636,42596.54
2125,22636,42616.60
2126,22640,42636.65
2127,22648,42656.71
2128,22652,42676.76
2129,22664,42696.82
2130,22668,42716.87
2131,22680,42736.93
2132,22692,42756.98
2133,22700,42777.04
2134,22708,42797.09
2135,22716,42817.15
2136,22724,42837.20
2137,22736,42857.26
2138,22744,42877.31
2139,22756,42897.37
2140,22764,42917.42
2141,22776,42937.48
2142,22784,42957.53
2143,22780,42977.59
2144,22768,42997.64
2145,22748,43017.70
2146,22724,43037.75
2147,22696,43057.81
2148,22676,43077.86
2149,22668,43097.92
2150,22668,43117.97
2151,22668,43138.03
2152,22676,43158.08
2153,22684,43178.14
2154,22688,43198.19
2155,22696,43218.25
2156,22700,43238.30
2157,22708,43258.35
2158,22712,43278.41
2159,22720,43298.46
2160,22720,43318.52
2161,22724,43338.57
2162,22724,43358.63
2163,22732,43378.68
2164,22732,43398.74
2165,22740,43418.79
2166,22748,43438.85
2167,22760,43458.90
2168,22768,43478.96
2169,22776,43499.01
2170,22784,43519.07
2171,22796,43539.12
2172,22808,43559.18
2173,22816,43579.23
2174,22824,43599.29
2175,22836,43619.34
2176,22848,43639.40
2177,22860,43659.45
2178,22872,43679.51
2179,22884,43699.56
2180,22892,43719.62
2181,22904,43739.67
2182,22904,43759.73
2183,22892,43779.78
2184,22876,43799.84
2185,22848,43819.89
2186,22824,43839.95
2187,22804,43860.00
2188,22792,43880.06
2189,22788,43900.11
2190,22792,43920.17
2191,22800,43940.22
2192,22812,43960.28
2193,22816,43980.33
2194,22820,44000.39
2195,22828,44020.44
2196,22828,44040.49
2197,22832,44060.55
2198,22832,44080.60
2199,22832,44100.66
2200,22828,44120.71
2201,22824,44140.77
2202,22824,44160.82
2203,22824,44180.88
2204,22832,44200.93
2205,22836,44220.99
2206,22844,44241.04
2207,22856,44261.10
2208,22872,44281.15
2209,22884,44301.21
2210,22896,44321.26
2211,22904,44341.32
2212,22908,44361.37
2213,22908,44381.43
2214,22904,44401.48
2215,22904,44421.54
2216,22904,44441.59
2217,22904,44461.65
2218,22908,44481.70
2219,22900,44501.76
2220,22884,44521.81
2221,22860,44541.87
2222,22828,44561.92
2223,22792,44581.98
2224,22768,44602.03
2225,22748,44622.09
2226,22740,44642.14
2227,22740,44662.20
2228,22744,44682.25
2229,22748,44702.31
2230,22760,44722.36
2231,22768,44742.42
2232,22780,44762.47
2233,22788,44782.52
2234,22792,44802.58
2235,22800,44822.63
2236,22804,44842.69
2237,22812,44862.74
2238,22816,44882.80
2239,22824,44902.85
2240,22828,44922.91
2241,22832,44942.96
2242,22840,44963.02
2243,22840,44983.07
2244,22844,45003.13
2245,22852,45023.18
2246,22860,45043.24
2247,22864,45063.29
2248,22880,45083.35
2249,22888,45103.40
2250,22904,45123.46
2251,22912,45143.51
2252,22924,45163.57
2253,22920,45183.62
2254,22908,45203.68
2255,22884,45223.73
2256,22856,45243.79
2257,22828,45263.84
2258,22808,45283.90
2259,22788,45303.95
2260,22776,45324.01
2261,22768,45344.06
2262,22764,45364.12
2263,22768,45384.17
2264,22772,45404.23
2265,22780,45424.28
2266,22792,45444.34
2267,22796,45464.39
2268,22800,45484.45
2269,22804,45504.50
2270,22808,45524.56
2271,22812,45544.61
2272,22816,45564.66
2273,22820,45584.72
2274,22824,45604.77
2275,22832,45624.83
2276,22840,45644.88
2277,22852,45664.94
2278,22852,45684.99
2279,22852,45705.05
2280,22852,45725.10
2281,22852,45745.16
2282,22856,45765.21
2283,22864,45785.27
2284,22864,45805.32
2285,22860,45825.38
2286,22844,45845.43
2287,22820,45865.49
2288,22792,45885.54
2289,22760,45905.60
2290,22736,45925.65
2291,22716,45945.71
2292,22708,45965.76
2293,22708,45985.82
2294,22712,46005.87
2295,22716,46025.93
2296,22724,46045.98
2297,22732,46066.04
2298,22736,46086.09
2299,22740,46106.15
2300,22732,46126.20
2301,22732,46146.26
2302,22728,46166.31
2303,22724,46186.37
2304,22732,46206.42
2305,22736,46226.48
2306,22744,46246.53
2307,22752,46266.59
2308,22768,46286.64
2309,22784,46306.70
2310,22800,46326.75
2311,22812,46346.80
2312,22828,46366.86
2313,22840,46386.91
2314,22852,46406.97
2315,22868,46427.02
2316,22876,46447.08
2317,22868,46467.13
2318,22848,46487.19
2319,22820,46507.24
2320,22788,46527.30
2321,22756,46547.35
2322,22736,46567.41
2323,22728,46587.46
2324,22732,46607.52
2325,22740,46627.57
2326,22748,46647.63
2327,22756,46667.68
2328,22764,46687.74
2329,22768,46707.79
2330,22776,46727.85
2331,22780,46747.90
2332,22784,46767.96
2333,22780,46788.01
2334,22776,46808.07
2335,22780,46828.12
2336,22780,46848.18
2337,22788,46868.23
2338,22796,46888.29
2339,22804,46908.34
2340,22812,46928.40
2341,22824,46948.45
2342,22836,46968.51
2343,22852,46988.56
2344,22864,47008.62
2345,22880,47028.67
2346,22888,47048.73
2347,22892,47068.78
2348,22876,47088.84
2349,22844,47108.89
2350,22800,47128.94
2351,22764,47149.00
2352,22736,47169.05
2353,22720,47189.11
2354,22716,47209.16
2355,22716,47229.22
2356,22720,47249.27
2357,22728,47269.33
2358,22736,47289.38
2359,22748,47309.44
2360,22756,47329.49
2361,22764,47349.55
2362,22772,47369.60
2363,22776,47389.66
2364,22784,47409.71
2365,22788,47429.77
2366,22792,47449.82
2367,22796,47469.88
2368,22804,47489.93
2369,22812,47509.99
2370,22820,47530.04
2371,22832,47550.10
2372,22848,47570.15
2373,22860,47590.21
2374,22872,47610.26
2375,22884,47630.32
2376,22896,47650.37
2377,22908,47670.43
2378,22920,47690.48
2379,22920,47710.54
2380,22900,47730.59
2381,22872,47750.65
2382,22844,47770.70
2383,22824,47790.76
2384,22812,47810.81
2385,22816,47830.87
2386,22824,47850.92
2387,22836,47870.97
2388,22848,47891.03
2389,22860,47911.08
2390,22880,47931.14
2391,22896,47951.19
2392,22912,47971.25
2393,22928,47991.30
2394,22936,48011.36
2395,22948,48031.41
2396,22956,48051.47
2397,22964,48071.52
2398,22972,48091.58
2399,22984,48111.63
2400,22996,48131.69
2401,23008,48151.74
2402,23024,48171.80
2403,23040,48191.85
2404,23056,48211.91
2405,23072,48231.96
2406,23088,48252.02
2407,23104,48272.07
2408,23120,48292.13
2409,23132,48312.18
2410,23132,48332.24
2411,23120,48352.29
2412,23100,48372.35
2413,23076,48392.40
2414,23064,48412.46
2415,23048,48432.51
2416,23048,48452.57
2417,23056,48472.62
2418,23060,48492.68
2419,23072,48512.73
2420,23076,48532.79
2421,23088,48552.84
2422,23100,48572.90
2423,23108,48592.95
2424,23116,48613.01
2425,23116,48633.06
2426,23120,48653.11
2427,23124,48673.17
2428,23124,48693.22
2429,23128,48713.28
2430,23136,48733.33
2431,23140,48753.39
2432,23148,48773.44
2433,23156,48793.50
2434,23164,48813.55
2435,23176,48833.61
2436,23188,48853.66
2437,23200,48873.72
2438,23212,48893.77
2439,23216,48913.83
2440,23212,48933.88
2441,23196,48953.94
2442,23180,48973.99
2443,23164,48994.05
2444,23156,49014.10
2445,23156,49034.16
2446,23164,49054.21
2447,23172,49074.27
2448,23180,49094.32
2449,23192,49114.38
2450,23204,49134.43
2451,23212,49154.49
2452,23224,49174.54
2453,23232,49194.60
2454,23236,49214.65
2455,23244,49234.71
2456,23252,49254.76
2457,23256,49274.82
2458,23264,49294.87
2459,23268,49314.93
2460,23276,49334.98
2461,23284,49355.04
2462,23292,49375.09
2463,23300,49395.15
2464,23308,49415.20
2465,23316,49435.25
2466,23328,49455.31
2467,23336,49475.36
2468,23340,49495.42
2469,23332,49515.47
2470,23320,49535.53
2471,23304,49555.58
2472,23288,49575.64
2473,23272,49595.69
2474,23260,49615.75
2475,23252,49635.80
2476,23248,49655.86
2477,23244,49675.91
2478,23244,49695.97
2479,23244,49716.02
2480,23240,49736.08
2481,23240,49756.13
2482,23236,49776.19
2483,23232,49796.24
2484,23228,49816.30
2485,23224,49836.35
2486,23224,49856.41
2487,23220,49876.46
2488,23220,49896.52
2489,23220,49916.57
2490,23220,49936.63
2491,23220,49956.68
2492,23224,49976.74
2493,23228,49996.79
2494,23228,50016.85
2495,23232,50036.90
2496,23236,50056.96
2497,23236,50077.01
2498,23240,50097.07
2499,23232,50117.12
2500,23212,50137.18
2501,23192,50157.23
2502,23172,50177.29
2503,23152,50197.34
2504,23136,50217.39
2505,23132,50237.45
2506,23124,50257.50
2507,23124,50277.56
2508,23124,50297.61
2509,23124,50317.67
2510,23128,50337.72
2511,23128,50357.78
2512,23132,50377.83
2513,23128,50397.89
2514,23132,50417.94
2515,23128,50438.00
2516,23128,50458.05
2517,23132,50478.11
2518,23136,50498.16
2519,23136,50518.22
2520,23136,50538.27
2521,23140,50558.33
2522,23140,50578.38
2523,23144,50598.44
2524,23148,50618.49
2525,23156,50638.55
2526,23160,50658.60
2527,23168,50678.66
2528,23180,50698.71
2529,23184,50718.77
2530,23196,50738.82
2531,23200,50758.88
2532,23200,50778.93
2533,23192,50798.99
2534,23176,50819.04
2535,23160,50839.10
2536,23148,50859.15
2537,23140,50879.21
2538,23144,50899.26
2539,23144,50919.32
2540,23152,50939.37
2541,23156,50959.42
2542,23164,50979.48
2543,23172,50999.53
2544,23180,51019.59
2545,23188,51039.64
2546,23196,51059.70
2547,23204,51079.75
2548,23212,51099.81
2549,23220,51119.86
2550,23228,51139.92
2551,23232,51159.97
2552,23240,51180.03
2553,23248,51200.08
2554,23256,51220.14
2555,23264,51240.19
2556,23272,51260.25
2557,23284,51280.30
2558,23292,51300.36
2559,23304,51320.41
2560,23312,51340.47
2561,23324,51360.52
2562,23332,51380.58
2563,23340,51400.63
2564,23348,51420.69
2565,23356,51440.74
2566,23364,51460.80
2567,23376,51480.85
2568,23384,51500.91
2569,23392,51520.96
2570,23388,51541.02
2571,23380,51561.07
2572,23368,51581.13
2573,23348,51601.18
2574,23336,51621.24
2575,23328,51641.29
2576,23328,51661.35
2577,23332,51681.40
2578,23336,51701.46
2579,23344,51721.51
2580,23352,51741.56
2581,23356,51761.62
2582,23364,51781.67
2583,23372,51801.73
2584,23376,51821.78
2585,23380,51841.84
2586,23388,51861.89
2587,23392,51881.95
2588,23396,51902.00
2589,23404,51922.06
2590,23408,51942.11
2591,23416,51962.17
2592,23420,51982.22
2593,23428,52002.28
2594,23436,52022.33
2595,23444,52042.39
2596,23448,52062.44
2597,23456,52082.50
2598,23464,52102.55
2599,23476,52122.61
2600,23484,52142.66
2601,23492,52162.72
2602,23504,52182.77
2603,23508,52202.83
2604,23516,52222.88
2605,23524,52242.94
2606,23532,52262.99
2607,23540,52283.05
2608,23552,52303.10
2609,23556,52323.16
2610,23564,52343.21
2611,23564,52363.27
2612,23552,52383.32
2613,23540,52403.38
2614,23524,52423.43
2615,23508,52443.49
2616,23500,52463.54
2617,23492,52483.60
2618,23496,52503.65
2619,23496,52523.70
2620,23508,52543.76
2621,23512,52563.81
2622,23520,52583.87
2623,23528,52603.92
2624,23536,52623.98
2625,23536,52644.03
2626,23540,52664.09
2627,23544,52684.14
2628,23548,52704.20
2629,23552,52724.25
2630,23552,52744.31
2631,23560,52764.36
2632,23564,52784.42
2633,23568,52804.47
2634,23572,52824.53
2635,23572,52844.58
2636,23580,52864.64
2637,23580,52884.69
2638,23588,52904.75
2639,23596,52924.80
2640,23604,52944.86
2641,23612,52964.91
2642,23624,52984.97
2643,23624,53005.02
2644,23632,53025.08
2645,23640,53045.13
2646,23644,53065.19
2647,23652,53085.24
2648,23652,53105.30
2649,23644,53125.35
2650,23628,53145.41
2651,23612,53165.46
2652,23596,53185.52
2653,23576,53205.57
2654,23568,53225.63
2655,23560,53245.68
2656,23556,53265.74
2657,23556,53285.79
2658,23556,53305.84
2659,23560,53325.90
2660,23568,53345.95
2661,23572,53366.01
2662,23576,53386.06
2663,23580,53406.12
2664,23580,53426.17
2665,23580,53446.23
2666,23580,53466.28
2667,23580,53486.34
2668,23580,53506.39
2669,23584,53526.45
2670,23588,53546.50
2671,23596,53566.56
2672,23596,53586.61
2673,23600,53606.67
2674,23604,53626.72
2675,23608,53646.78
2676,23612,53666.83
2677,23616,53686.89
2678,23620,53706.94
2679,23624,53727.00
2680,23632,53747.05
2681,23636,53767.11
2682,23644,53787.16
2683,23644,53807.22
2684,23636,53827.27
2685,23620,53847.33
2686,23600,53867.38
2687,23572,53887.44
2688,23548,53907.49
2689,23528,53927.55
2690,23516,53947.60
2691,23508,53967.66
2692,23504,53987.71
2693,23508,54007.77
2694,23512,54027.82
2695,23512,54047.87
2696,23516,54067.93
2697,23516,54087.98
2698,23516,54108.04
2699,23516,54128.09
2700,23512,54148.15
2701,23508,54168.20
2702,23508,54188.26
2703,23500,54208.31
2704,23500,54228.37
2705,23500,54248.42
2706,23500,54268.48
2707,23500,54288.53
2708,23500,54308.59
2709,23504,54328.64
2710,23508,54348.70
2711,23512,54368.75
2712,23516,54388.81
2713,23520,54408.86
2714,23520,54428.92
2715,23524,54448.97
2716,23524,54469.03
2717,23528,54489.08
2718,23532,54509.14
2719,23524,54529.19
2720,23512,54549.25
2721,23480,54569.30
2722,23448,54589.36
2723,23408,54609.41
2724,23376,54629.47
2725,23348,54649.52
2726,23328,54669.58
2727,23316,54689.63
2728,23312,54709.69
2729,23308,54729.74
2730,23308,54749.80
2731,23312,54769.85
2732,23312,54789.91
2733,23320,54809.96
2734,23320,54830.01
2735,23320,54850.07
2736,23320,54870.12
2737,23320,54890.18
2738,23316,54910.23
2739,23316,54930.29
2740,23316,54950.34
2741,23316,54970.40
2742,23320,54990.45
2743,23324,55010.51
2744,23332,55030.56
2745,23340,55050.62
2746,23348,55070.67
2747,23352,55090.73
2748,23356,55110.78
2749,23368,55130.84
2750,23376,55150.89
2751,23384,55170.95
2752,23396,55191.00
2753,23404,55211.06
2754,23412,55231.11
2755,23412,55251.17
2756,23396,55271.22
2757,23368,55291.28
2758,23332,55311.33
2759,23288,55331.39
2760,23252,55351.44
2761,23228,55371.50
2762,23208,55391.55
2763,23204,55411.61
2764,23204,55431.66
2765,23200,55451.72
2766,23204,55471.77
2767,23208,55491.83
2768,23216,55511.88
2769,23220,55531.94
2770,23228,55551.99
2771,23232,55572.05
2772,23236,55592.10
2773,23236,55612.15
2774,23244,55632.21
2775,23244,55652.26
2776,23248,55672.32
2777,23256,55692.37
2778,23264,55712.43
2779,23272,55732.48
2780,23280,55752.54
2781,23292,55772.59
2782,23308,55792.65
2783,23316,55812.70
2784,23328,55832.76
2785,23344,55852.81
2786,23356,55872.87
2787,23364,55892.92
2788,23376,55912.98
2789,23388,55933.03
2790,23396,55953.09
2791,23404,55973.14
2792,23404,55993.20
2793,23392,56013.25
2794,23360,56033.31
2795,23320,56053.36
2796,23280,56073.42
2797,23244,56093.47
2798,23220,56113.53
2799,23208,56133.58
2800,23204,56153.64
2801,23208,56173.69
2802,23212,56193.75
2803,23220,56213.80
2804,23224,56233.86
2805,23232,56253.91
2806,23240,56273.97
2807,23244,56294.02
2808,23244,56314.08
2809,23248,56334.13
2810,23252,56354.19
2811,23256,56374.24
2812,23260,56394.29
2813,23264,56414.35
2814,23268,56434.40
2815,23280,56454.46
2816,23288,56474.51
2817,23300,56494.57
2818,23308,56514.62
2819,23320,56534.68
2820,23328,56554.73
2821,23344,56574.79
2822,23356,56594.84
2823,23368,56614.90
2824,23380,56634.95
2825,23384,56655.01
2826,23372,56675.06
2827,23344,56695.12
2828,23308,56715.17
2829,23264,56735.23
2830,23232,56755.28
2831,23208,56775.34
2832,23192,56795.39
2833,23188,56815.45
2834,23188,56835.50
2835,23196,56855.56
2836,23204,56875.61
2837,23216,56895.67
2838,23224,56915.72
2839,23236,56935.78
2840,23240,56955.83
2841,23248,56975.89
2842,23248,56995.94
2843,23248,57016.00
2844,23244,57036.05
2845,23240,57056.11
2846,23240,57076.16
2847,23240,57096.22
2848,23248,57116.27
2849,23256,57136.32
2850,23264,57156.38
2851,23268,57176.43
2852,23280,57196.49
2853,23288,57216.54
2854,23300,57236.60
2855,23308,57256.65
2856,23312,57276.71
2857,23300,57296.76
2858,23272,57316.82
2859,23236,57336.87
2860,23188,57356.93
2861,23148,57376.98
2862,23112,57397.04
2863,23096,57417.09
2864,23084,57437.15
2865,23080,57457.20
2866,23088,57477.26
2867,23096,57497.31
2868,23104,57517.37
2869,23112,57537.42
2870,23124,57557.48
2871,23128,57577.53
2872,23132,57597.59
2873,23132,57617.64
2874,23128,57637.70
2875,23128,57657.75
2876,23124,57677.81
2877,23120,57697.86
2878,23124,57717.92
2879,23128,57737.97
2880,23136,57758.03
2881,23144,57778.08
2882,23152,57798.14
2883,23160,57818.19
2884,23168,57838.25
2885,23176,57858.30
2886,23180,57878.36
2887,23160,57898.41
2888,23128,57918.46
2889,23080,57938.52
2890,23036,57958.57
2891,22988,57978.63
2892,22956,57998.68
2893,22936,58018.74
2894,22924,58038.79
2895,22920,58058.85
2896,22924,58078.90
2897,22924,58098.96
2898,22936,58119.01
2899,22944,58139.07
2900,22952,58159.12
2901,22960,58179.18
2902,22960,58199.23
2903,22960,58219.29
2904,22956,58239.34
2905,22956,58259.40
2906,22956,58279.45
2907,22956,58299.51
2908,22964,58319.56
2909,22976,58339.62
2910,22984,58359.67
2911,22996,58379.73
2912,23004,58399.78
2913,23012,58419.84
2914,23024,58439.89
2915,23028,58459.95
2916,23024,58480.00
2917,22992,58500.06
2918,22948,58520.11
2919,22892,58540.17
2920,22840,58560.22
2921,22800,58580.28
2922,22780,58600.33
2923,22768,58620.39
2924,22764,58640.44
2925,22764,58660.50
2926,22768,58680.55
2927,22776,58700.60
2928,22788,58720.66
2929,22800,58740.71
2930,22808,58760.77
2931,22816,58780.82
2932,22824,58800.88
2933,22828,58820.93
2934,22828,58840.99
2935,22832,58861.04
2936,22832,58881.10
2937,22840,58901.15
2938,22848,58921.21
2939,22860,58941.26
2940,22872,58961.32
2941,22888,58981.37
2942,22900,59001.43
2943,22916,59021.48
2944,22928,59041.54
2945,22944,59061.59
2946,22956,59081.65
2947,22964,59101.70
2948,22956,59121.76
2949,22928,59141.81
2950,22880,59161.87
2951,22828,59181.92
2952,22780,59201.98
2953,22752,59222.03
2954,22740,59242.09
2955,22736,59262.14
2956,22736,59282.20
2957,22740,59302.25
2958,22748,59322.31
2959,22760,59342.36
2960,22776,59362.42
2961,22784,59382.47
2962,22800,59402.53
2963,22812,59422.58
2964,22820,59442.64
2965,22828,59462.69
2966,22832,59482.74
2967,22840,59502.80
2968,22848,59522.85
2969,22860,59542.91
2970,22872,59562.96
2971,22884,59583.02
2972,22900,59603.07
2973,22916,59623.13
2974,22932,59643.18
2975,22948,59663.24
2976,22964,59683.29
2977,22976,59703.35
2978,22988,59723.40
2979,23004,59743.46
2980,23024,59763.51
2981,23036,59783.57
2982,23052,59803.62
2983,23064,59823.68
2984,23048,59843.73
2985,23020,59863.79
2986,22972,59883.84
2987,22924,59903.90
2988,22884,59923.95
2989,22860,59944.01
2990,22848,59964.06
2991,22852,59984.12
2992,22852,60004.17
2993,22860,60024.23
2994,22868,60044.28
2995,22880,60064.34
2996,22892,60084.39
2997,22900,60104.45
2998,22908,60124.50
2999,22916,60144.56
