Sample_Index,IR_Value,Timestamp_ms
0,21508,0.00
1,21852,22.15
2,22260,44.30
3,22608,66.45
4,22960,88.60
5,23300,110.76
6,23592,132.91
7,23868,155.06
8,24124,177.21
9,24328,199.36
10,24488,221.51
11,24612,243.66
12,24712,265.81
13,24788,287.96
14,24840,310.11
15,24876,332.27
16,24900,354.42
17,24916,376.57
18,24920,398.72
19,24912,420.87
20,24884,443.02
21,24856,465.17
22,24872,487.32
23,24908,509.47
24,24928,531.62
25,24940,553.78
26,24952,575.93
27,24960,598.08
28,24972,620.23
29,24980,642.38
30,24984,664.53
31,24992,686.68
32,25004,708.83
33,25020,730.98
34,25024,753.14
35,25028,775.29
36,25028,797.44
37,25036,819.59
38,25044,841.74
39,25036,863.89
40,25028,886.04
41,25012,908.19
42,25004,930.34
43,24996,952.49
44,24992,974.65
45,24988,996.80
46,24988,1018.95
47,24996,1041.10
48,25000,1063.25
49,25016,1085.40
50,25032,1107.55
51,25044,1129.70
52,25048,1151.85
53,25052,1174.01
54,25056,1196.16
55,25044,1218.31
56,25044,1240.46
57,25040,1262.61
58,25044,1284.76
59,25048,1306.91
60,25044,1329.06
61,25044,1351.21
62,25044,1373.36
63,25040,1395.52
64,25044,1417.67
65,25048,1439.82
66,25056,1461.97
67,25060,1484.12
68,25064,1506.27
69,25068,1528.42
70,25080,1550.57
71,25084,1572.72
72,25092,1594.87
73,25096,1617.03
74,25092,1639.18
75,25084,1661.33
76,25072,1683.48
77,25056,1705.63
78,25036,1727.78
79,25024,1749.93
80,25020,1772.08
81,25016,1794.23
82,25012,1816.39
83,25012,1838.54
84,25008,1860.69
85,25008,1882.84
86,25012,1904.99
87,25016,1927.14
88,25016,1949.29
89,25016,1971.44
90,25016,1993.59
91,25012,2015.74
92,25008,2037.90
93,25008,2060.05
94,25008,2082.20
95,25004,2104.35
96,25004,2126.50
97,25000,2148.65
98,25000,2170.80
99,25000,2192.95
100,25004,2215.10
101,25004,2237.26
102,25004,2259.41
103,25000,2281.56
104,25000,2303.71
105,24996,2325.86
106,24996,2348.01
107,24988,2370.16
108,24972,2392.31
109,24948,2414.46
110,24928,2436.61
111,24908,2458.77
112,24892,2480.92
113,24884,2503.07
114,24872,2525.22
115,24864,2547.37
116,24860,2569.52
117,24864,2591.67
118,24872,2613.82
119,24876,2635.97
120,24876,2658.12
121,24880,2680.28
122,24888,2702.43
123,24884,2724.58
124,24884,2746.73
125,24884,2768.88
126,24888,2791.03
127,24884,2813.18
128,24888,2835.33
129,24888,2857.48
130,24896,2879.64
131,24900,2901.79
132,24900,2923.94
133,24908,2946.09
134,24912,2968.24
135,24908,2990.39
136,24912,3012.54
137,24920,3034.69
138,24920,3056.84
139,24916,3078.99
140,24904,3101.15
141,24884,3123.30
142,24868,3145.45
143,24848,3167.60
144,24828,3189.75
145,24820,3211.90
146,24812,3234.05
147,24812,3256.20
148,24804,3278.35
149,24804,3300.51
150,24804,3322.66
151,24808,3344.81
152,24804,3366.96
153,24808,3389.11
154,24812,3411.26
155,24812,3433.41
156,24808,3455.56
157,24808,3477.71
158,24812,3499.86
159,24812,3522.02
160,24812,3544.17
161,24820,3566.32
162,24824,3588.47
163,24828,3610.62
164,24832,3632.77
165,24840,3654.92
166,24844,3677.07
167,24844,3699.22
168,24848,3721.37
169,24848,3743.53
170,24848,3765.68
171,24856,3787.83
172,24856,3809.98
173,24852,3832.13
174,24828,3854.28
175,24804,3876.43
176,24772,3898.58
177,24744,3920.73
178,24712,3942.89
179,24688,3965.04
180,24672,3987.19
181,24660,4009.34
182,24660,4031.49
183,24656,4053.64
184,24656,4075.79
185,24656,4097.94
186,24664,4120.09
187,24664,4142.24
188,24668,4164.40
189,24672,4186.55
190,24672,4208.70
191,24672,4230.85
192,24680,4253.00
193,24676,4275.15
194,24692,4297.30
195,24700,4319.45
196,24712,4341.60
197,24716,4363.75
198,24728,4385.91
199,24740,4408.06
200,24756,4430.21
201,24768,4452.36
202,24780,4474.51
203,24792,4496.66
204,24800,4518.81
205,24812,4540.96
206,24820,4563.11
207,24832,4585.27
208,24840,4607.42
209,24848,4629.57
210,24864,4651.72
211,24876,4673.87
212,24884,4696.02
213,24896,4718.17
214,24900,4740.32
215,24900,4762.47
216,24888,4784.62
217,24876,4806.78
218,24856,4828.93
219,24848,4851.08
220,24848,4873.23
221,24848,4895.38
222,24848,4917.53
223,24856,4939.68
224,24860,4961.83
225,24864,4983.98
226,24868,5006.14
227,24876,5028.29
228,24888,5050.44
229,24900,5072.59
230,24908,5094.74
231,24912,5116.89
232,24912,5139.04
233,24916,5161.19
234,24920,5183.34
235,24928,5205.49
236,24932,5227.65
237,24940,5249.80
238,24948,5271.95
239,24952,5294.10
240,24960,5316.25
241,24964,5338.40
242,24972,5360.55
243,24976,5382.70
244,24980,5404.85
245,24984,5427.00
246,24992,5449.16
247,25000,5471.31
248,25008,5493.46
249,25016,5515.61
250,25016,5537.76
251,25020,5559.91
252,25024,5582.06
253,25032,5604.21
254,25040,5626.36
255,25048,5648.52
256,25060,5670.67
257,25064,5692.82
258,25072,5714.97
259,25068,5737.12
260,25060,5759.27
261,25052,5781.42
262,25052,5803.57
263,25048,5825.72
264,25052,5847.87
265,25060,5870.03
266,25068,5892.18
267,25072,5914.33
268,25080,5936.48
269,25084,5958.63
270,25096,5980.78
271,25100,6002.93
272,25108,6025.08
273,25112,6047.23
274,25116,6069.39
275,25120,6091.54
276,25120,6113.69
277,25120,6135.84
278,25120,6157.99
279,25120,6180.14
280,25124,6202.29
281,25132,6224.44
282,25140,6246.59
283,25144,6268.74
284,25152,6290.90
285,25156,6313.05
286,25160,6335.20
287,25164,6357.35
288,25168,6379.50
289,25176,6401.65
290,25180,6423.80
291,25188,6445.95
292,25196,6468.10
293,25204,6490.25
294,25212,6512.41
295,25220,6534.56
296,25228,6556.71
297,25236,6578.86
298,25240,6601.01
299,25252,6623.16
300,25264,6645.31
301,25268,6667.46
302,25276,6689.61
303,25288,6711.77
304,25292,6733.92
305,25292,6756.07
306,25292,6778.22
307,25284,6800.37
308,25280,6822.52
309,25284,6844.67
310,25284,6866.82
311,25292,6888.97
312,25304,6911.12
313,25308,6933.28
314,25316,6955.43
315,25320,6977.58
316,25324,6999.73
317,25328,7021.88
318,25332,7044.03
319,25336,7066.18
320,25340,7088.33
321,25340,7110.48
322,25340,7132.63
323,25340,7154.79
324,25340,7176.94
325,25348,7199.09
326,25352,7221.24
327,25360,7243.39
328,25364,7265.54
329,25368,7287.69
330,25376,7309.84
331,25384,7331.99
332,25388,7354.15
333,25400,7376.30
334,25400,7398.45
335,25412,7420.60
336,25412,7442.75
337,25424,7464.90
338,25428,7487.05
339,25436,7509.20
340,25436,7531.35
341,25440,7553.50
342,25448,7575.66
343,25452,7597.81
344,25456,7619.96
345,25464,7642.11
346,25464,7664.26
347,25460,7686.41
348,25452,7708.56
349,25452,7730.71
350,25448,7752.86
351,25448,7775.02
352,25452,7797.17
353,25460,7819.32
354,25468,7841.47
355,25472,7863.62
356,25476,7885.77
357,25480,7907.92
358,25488,7930.07
359,25492,7952.22
360,25492,7974.37
361,25496,7996.53
362,25492,8018.68
363,25496,8040.83
364,25500,8062.98
365,25508,8085.13
366,25516,8107.28
367,25520,8129.43
368,25524,8151.58
369,25532,8173.73
370,25540,8195.88
371,25548,8218.04
372,25552,8240.19
373,25560,8262.34
374,25564,8284.49
375,25568,8306.64
376,25576,8328.79
377,25580,8350.94
378,25584,8373.09
379,25588,8395.24
380,25588,8417.40
381,25596,8439.55
382,25604,8461.70
383,25604,8483.85
384,25612,8506.00
385,25608,8528.15
386,25608,8550.30
387,25604,8572.45
388,25592,8594.60
389,25588,8616.75
390,25584,8638.91
391,25588,8661.06
392,25592,8683.21
393,25596,8705.36
394,25600,8727.51
395,25608,8749.66
396,25608,8771.81
397,25612,8793.96
398,25616,8816.11
399,25620,8838.27
400,25628,8860.42
401,25628,8882.57
402,25632,8904.72
403,25636,8926.87
404,25640,8949.02
405,25640,8971.17
406,25644,8993.32
407,25648,9015.47
408,25652,9037.62
409,25652,9059.78
410,25668,9081.93
411,25668,9104.08
412,25676,9126.23
413,25680,9148.38
414,25684,9170.53
415,25688,9192.68
416,25692,9214.83
417,25692,9236.98
418,25696,9259.13
419,25700,9281.29
420,25700,9303.44
421,25700,9325.59
422,25704,9347.74
423,25708,9369.89
424,25708,9392.04
425,25712,9414.19
426,25712,9436.34
427,25704,9458.49
428,25700,9480.65
429,25696,9502.80
430,25692,9524.95
431,25688,9547.10
432,25692,9569.25
433,25696,9591.40
434,25696,9613.55
435,25704,9635.70
436,25708,9657.85
437,25716,9680.00
438,25720,9702.16
439,25728,9724.31
440,25728,9746.46
441,25736,9768.61
442,25736,9790.76
443,25736,9812.91
444,25740,9835.06
445,25744,9857.21
446,25748,9879.36
447,25752,9901.52
448,25756,9923.67
449,25760,9945.82
450,25764,9967.97
451,25764,9990.12
452,25768,10012.27
453,25772,10034.42
454,25772,10056.57
455,25776,10078.72
456,25780,10100.87
457,25784,10123.03
458,25788,10145.18
459,25788,10167.33
460,25784,10189.48
461,25788,10211.63
462,25788,10233.78
463,25788,10255.93
464,25788,10278.08
465,25788,10300.23
466,25792,10322.38
467,25796,10344.54
468,25788,10366.69
469,25784,10388.84
470,25772,10410.99
471,25768,10433.14
472,25768,10455.29
473,25772,10477.44
474,25776,10499.59
475,25780,10521.74
476,25784,10543.90
477,25788,10566.05
478,25796,10588.20
479,25796,10610.35
480,25800,10632.50
481,25800,10654.65
482,25800,10676.80
483,25800,10698.95
484,25800,10721.10
485,25804,10743.25
486,25804,10765.41
487,25804,10787.56
488,25808,10809.71
489,25808,10831.86
490,25812,10854.01
491,25812,10876.16
492,25816,10898.31
493,25816,10920.46
494,25824,10942.61
495,25828,10964.76
496,25828,10986.92
497,25828,11009.07
498,25828,11031.22
499,25832,11053.37
500,25828,11075.52
501,25824,11097.67
502,25824,11119.82
503,25824,11141.97
504,25820,11164.12
505,25816,11186.28
506,25812,11208.43
507,25804,11230.58
508,25800,11252.73
509,25796,11274.88
510,25800,11297.03
511,25804,11319.18
512,25808,11341.33
513,25812,11363.48
514,25816,11385.63
515,25820,11407.79
516,25820,11429.94
517,25820,11452.09
518,25824,11474.24
519,25820,11496.39
520,25820,11518.54
521,25820,11540.69
522,25820,11562.84
523,25824,11584.99
524,25824,11607.15
525,25824,11629.30
526,25828,11651.45
527,25824,11673.60
528,25828,11695.75
529,25828,11717.90
530,25828,11740.05
531,25832,11762.20
532,25836,11784.35
533,25836,11806.50
534,25836,11828.66
535,25836,11850.81
536,25832,11872.96
537,25828,11895.11
538,25820,11917.26
539,25812,11939.41
540,25804,11961.56
541,25796,11983.71
542,25792,12005.86
543,25792,12028.01
544,25788,12050.17
545,25788,12072.32
546,25788,12094.47
547,25788,12116.62
548,25792,12138.77
549,25796,12160.92
550,25796,12183.07
551,25796,12205.22
552,25792,12227.37
553,25788,12249.53
554,25788,12271.68
555,25788,12293.83
556,25784,12315.98
557,25784,12338.13
558,25784,12360.28
559,25788,12382.43
560,25792,12404.58
561,25788,12426.73
562,25788,12448.88
563,25788,12471.04
564,25792,12493.19
565,25792,12515.34
566,25792,12537.49
567,25792,12559.64
568,25796,12581.79
569,25796,12603.94
570,25792,12626.09
571,25784,12648.24
572,25772,12670.40
573,25760,12692.55
574,25748,12714.70
575,25732,12736.85
576,25728,12759.00
577,25724,12781.15
578,25720,12803.30
579,25716,12825.45
580,25716,12847.60
581,25712,12869.75
582,25708,12891.91
583,25704,12914.06
584,25700,12936.21
585,25696,12958.36
586,25688,12980.51
587,25688,13002.66
588,25680,13024.81
589,25676,13046.96
590,25672,13069.11
591,25676,13091.26
592,25672,13113.42
593,25672,13135.57
594,25672,13157.72
595,25676,13179.87
596,25676,13202.02
597,25676,13224.17
598,25672,13246.32
599,25672,13268.47
600,25672,13290.62
601,25668,13312.78
602,25672,13334.93
603,25672,13357.08
604,25672,13379.23
605,25668,13401.38
606,25668,13423.53
607,25668,13445.68
608,25668,13467.83
609,25664,13489.98
610,25660,13512.13
611,25648,13534.29
612,25628,13556.44
613,25612,13578.59
614,25592,13600.74
615,25580,13622.89
616,25568,13645.04
617,25560,13667.19
618,25548,13689.34
619,25548,13711.49
620,25540,13733.65
621,25528,13755.80
622,25528,13777.95
623,25524,13800.10
624,25520,13822.25
625,25516,13844.40
626,25512,13866.55
627,25508,13888.70
628,25500,13910.85
629,25496,13933.00
630,25492,13955.16
631,25484,13977.31
632,25484,13999.46
633,25484,14021.61
634,25480,14043.76
635,25480,14065.91
636,25480,14088.06
637,25476,14110.21
638,25476,14132.36
639,25472,14154.51
640,25472,14176.67
641,25476,14198.82
642,25472,14220.97
643,25472,14243.12
644,25472,14265.27
645,25472,14287.42
646,25468,14309.57
647,25468,14331.72
648,25464,14353.87
649,25464,14376.03
650,25460,14398.18
651,25456,14420.33
652,25460,14442.48
653,25460,14464.63
654,25460,14486.78
655,25460,14508.93
656,25448,14531.08
657,25432,14553.23
658,25412,14575.38
659,25388,14597.54
660,25372,14619.69
661,25360,14641.84
662,25356,14663.99
663,25348,14686.14
664,25344,14708.29
665,25340,14730.44
666,25332,14752.59
667,25328,14774.74
668,25328,14796.89
669,25324,14819.05
670,25324,14841.20
671,25320,14863.35
672,25312,14885.50
673,25308,14907.65
674,25304,14929.80
675,25300,14951.95
676,25296,14974.10
677,25296,14996.25
678,25292,15018.41
679,25292,15040.56
680,25296,15062.71
681,25292,15084.86
682,25292,15107.01
683,25292,15129.16
684,25292,15151.31
685,25292,15173.46
686,25292,15195.61
687,25284,15217.76
688,25288,15239.92
689,25280,15262.07
690,25280,15284.22
691,25284,15306.37
692,25284,15328.52
693,25288,15350.67
694,25284,15372.82
695,25284,15394.97
696,25284,15417.12
697,25284,15439.28
698,25288,15461.43
699,25288,15483.58
700,25292,15505.73
701,25296,15527.88
702,25300,15550.03
703,25304,15572.18
704,25304,15594.33
705,25308,15616.48
706,25312,15638.63
707,25308,15660.79
708,25296,15682.94
709,25284,15705.09
710,25264,15727.24
711,25240,15749.39
712,25228,15771.54
713,25220,15793.69
714,25212,15815.84
715,25208,15837.99
716,25204,15860.14
717,25204,15882.30
718,25204,15904.45
719,25204,15926.60
720,25204,15948.75
721,25200,15970.90
722,25200,15993.05
723,25184,16015.20
724,25180,16037.35
725,25172,16059.50
726,25164,16081.66
727,25156,16103.81
728,25156,16125.96
729,25156,16148.11
730,25156,16170.26
731,25160,16192.41
732,25152,16214.56
733,25156,16236.71
734,25156,16258.86
735,25156,16281.01
736,25160,16303.17
737,25160,16325.32
738,25160,16347.47
739,25168,16369.62
740,25164,16391.77
741,25168,16413.92
742,25168,16436.07
743,25172,16458.22
744,25172,16480.37
745,25176,16502.53
746,25180,16524.68
747,25184,16546.83
748,25188,16568.98
749,25196,16591.13
750,25192,16613.28
751,25196,16635.43
752,25196,16657.58
753,25180,16679.73
754,25168,16701.88
755,25148,16724.04
756,25132,16746.19
757,25116,16768.34
758,25108,16790.49
759,25100,16812.64
760,25100,16834.79
761,25096,16856.94
762,25088,16879.09
763,25092,16901.24
764,25092,16923.39
765,25092,16945.55
766,25088,16967.70
767,25088,16989.85
768,25080,17012.00
769,25072,17034.15
770,25068,17056.30
771,25064,17078.45
772,25056,17100.60
773,25060,17122.75
774,25060,17144.91
775,25064,17167.06
776,25068,17189.21
777,25072,17211.36
778,25072,17233.51
779,25080,17255.66
780,25080,17277.81
781,25080,17299.96
782,25084,17322.11
783,25088,17344.26
784,25092,17366.42
785,25096,17388.57
786,25096,17410.72
787,25100,17432.87
788,25104,17455.02
789,25104,17477.17
790,25108,17499.32
791,25112,17521.47
792,25112,17543.62
793,25112,17565.77
794,25104,17587.93
795,25088,17610.08
796,25068,17632.23
797,25044,17654.38
798,25024,17676.53
799,25012,17698.68
800,25000,17720.83
801,24996,17742.98
802,24992,17765.13
803,24992,17787.29
804,24992,17809.44
805,24992,17831.59
806,24992,17853.74
807,24992,17875.89
808,24988,17898.04
809,24984,17920.19
810,24976,17942.34
811,24968,17964.49
812,24964,17986.64
813,24964,18008.80
814,24964,18030.95
815,24968,18053.10
816,24972,18075.25
817,24976,18097.40
818,24980,18119.55
819,24984,18141.70
820,24988,18163.85
821,24996,18186.00
822,24996,18208.16
823,25004,18230.31
824,25008,18252.46
825,25012,18274.61
826,25016,18296.76
827,25020,18318.91
828,25020,18341.06
829,25024,18363.21
830,25028,18385.36
831,25032,18407.51
832,25040,18429.67
833,25040,18451.82
834,25044,18473.97
835,25040,18496.12
836,25024,18518.27
837,24996,18540.42
838,24964,18562.57
839,24936,18584.72
840,24916,18606.87
841,24900,18629.02
842,24888,18651.18
843,24884,18673.33
844,24880,18695.48
845,24880,18717.63
846,24868,18739.78
847,24868,18761.93
848,24864,18784.08
849,24860,18806.23
850,24860,18828.38
851,24856,18850.54
852,24852,18872.69
853,24848,18894.84
854,24848,18916.99
855,24848,18939.14
856,24844,18961.29
857,24848,18983.44
858,24848,19005.59
859,24856,19027.74
860,24860,19049.89
861,24864,19072.05
862,24872,19094.20
863,24880,19116.35
864,24884,19138.50
865,24888,19160.65
866,24892,19182.80
867,24900,19204.95
868,24900,19227.10
869,24904,19249.25
870,24912,19271.41
871,24916,19293.56
872,24916,19315.71
873,24924,19337.86
874,24932,19360.01
875,24936,19382.16
876,24940,19404.31
877,24940,19426.46
878,24940,19448.61
879,24928,19470.76
880,24908,19492.92
881,24884,19515.07
882,24852,19537.22
883,24824,19559.37
884,24808,19581.52
885,24796,19603.67
886,24784,19625.82
887,24780,19647.97
888,24772,19670.12
889,24768,19692.27
890,24772,19714.43
891,24772,19736.58
892,24772,19758.73
893,24772,19780.88
894,24772,19803.03
895,24772,19825.18
896,24768,19847.33
897,24760,19869.48
898,24764,19891.63
899,24760,19913.79
900,24768,19935.94
901,24772,19958.09
902,24776,19980.24
903,24780,20002.39
904,24788,20024.54
905,24792,20046.69
906,24800,20068.84
907,24804,20090.99
908,24812,20113.14
909,24816,20135.30
910,24820,20157.45
911,24824,20179.60
912,24828,20201.75
913,24836,20223.90
914,24836,20246.05
915,24836,20268.20
916,24840,20290.35
917,24844,20312.50
918,24848,20334.66
919,24856,20356.81
920,24864,20378.96
921,24868,20401.11
922,24876,20423.26
923,24880,20445.41
924,24888,20467.56
925,24892,20489.71
926,24896,20511.86
927,24892,20534.01
928,24876,20556.17
929,24856,20578.32
930,24828,20600.47
931,24800,20622.62
932,24780,20644.77
933,24764,20666.92
934,24752,20689.07
935,24752,20711.22
936,24752,20733.37
937,24752,20755.52
938,24752,20777.68
939,24752,20799.83
940,24760,20821.98
941,24756,20844.13
942,24760,20866.28
943,24752,20888.43
944,24744,20910.58
945,24740,20932.73
946,24736,20954.88
947,24736,20977.04
948,24736,20999.19
949,24740,21021.34
950,24744,21043.49
951,24748,21065.64
952,24752,21087.79
953,24756,21109.94
954,24752,21132.09
955,24760,21154.24
956,24760,21176.39
957,24768,21198.55
958,24772,21220.70
959,24776,21242.85
960,24780,21265.00
961,24784,21287.15
962,24784,21309.30
963,24788,21331.45
964,24796,21353.60
965,24792,21375.75
966,24800,21397.90
967,24804,21420.06
968,24812,21442.21
969,24820,21464.36
970,24824,21486.51
971,24828,21508.66
972,24832,21530.81
973,24820,21552.96
974,24800,21575.11
975,24776,21597.26
976,24748,21619.42
977,24728,21641.57
978,24712,21663.72
979,24704,21685.87
980,24700,21708.02
981,24692,21730.17
982,24696,21752.32
983,24696,21774.47
984,24700,21796.62
985,24704,21818.77
986,24708,21840.93
987,24704,21863.08
988,24696,21885.23
989,24688,21907.38
990,24688,21929.53
991,24680,21951.68
992,24672,21973.83
993,24668,21995.98
994,24664,22018.13
995,24664,22040.29
996,24668,22062.44
997,24676,22084.59
998,24680,22106.74
999,24688,22128.89
1000,24696,22151.04
1001,24700,22173.19
1002,24704,22195.34
1003,24704,22217.49
1004,24708,22239.64
1005,24716,22261.80
1006,24724,22283.95
1007,24728,22306.10
1008,24736,22328.25
1009,24740,22350.40
1010,24748,22372.55
1011,24756,22394.70
1012,24764,22416.85
1013,24764,22439.00
1014,24752,22461.15
1015,24728,22483.31
1016,24700,22505.46
1017,24676,22527.61
1018,24652,22549.76
1019,24636,22571.91
1020,24628,22594.06
1021,24620,22616.21
1022,24620,22638.36
1023,24620,22660.51
1024,24628,22682.67
1025,24632,22704.82
1026,24636,22726.97
1027,24640,22749.12
1028,24640,22771.27
1029,24632,22793.42
1030,24628,22815.57
1031,24624,22837.72
1032,24612,22859.87
1033,24608,22882.02
1034,24608,22904.18
1035,24604,22926.33
1036,24612,22948.48
1037,24620,22970.63
1038,24628,22992.78
1039,24632,23014.93
1040,24640,23037.08
1041,24644,23059.23
1042,24648,23081.38
1043,24652,23103.54
1044,24660,23125.69
1045,24668,23147.84
1046,24676,23169.99
1047,24684,23192.14
1048,24688,23214.29
1049,24700,23236.44
1050,24700,23258.59
1051,24696,23280.74
1052,24676,23302.89
1053,24648,23325.05
1054,24616,23347.20
1055,24592,23369.35
1056,24568,23391.50
1057,24552,23413.65
1058,24548,23435.80
1059,24544,23457.95
1060,24540,23480.10
1061,24536,23502.25
1062,24536,23524.40
1063,24540,23546.56
1064,24544,23568.71
1065,24544,23590.86
1066,24544,23613.01
1067,24536,23635.16
1068,24524,23657.31
1069,24516,23679.46
1070,24512,23701.61
1071,24508,23723.76
1072,24512,23745.92
1073,24516,23768.07
1074,24520,23790.22
1075,24532,23812.37
1076,24536,23834.52
1077,24544,23856.67
1078,24556,23878.82
1079,24560,23900.97
1080,24572,23923.12
1081,24580,23945.27
1082,24584,23967.43
1083,24592,23989.58
1084,24600,24011.73
1085,24604,24033.88
1086,24616,24056.03
1087,24620,24078.18
1088,24628,24100.33
1089,24632,24122.48
1090,24628,24144.63
1091,24608,24166.79
1092,24576,24188.94
1093,24540,24211.09
1094,24500,24233.24
1095,24468,24255.39
1096,24448,24277.54
1097,24432,24299.69
1098,24428,24321.84
1099,24424,24343.99
1100,24420,24366.14
1101,24420,24388.30
1102,24424,24410.45
1103,24432,24432.60
1104,24432,24454.75
1105,24436,24476.90
1106,24436,24499.05
1107,24436,24521.20
1108,24432,24543.35
1109,24424,24565.50
1110,24420,24587.65
1111,24428,24609.81
1112,24432,24631.96
1113,24440,24654.11
1114,24452,24676.26
1115,24460,24698.41
1116,24468,24720.56
1117,24480,24742.71
1118,24492,24764.86
1119,24500,24787.01
1120,24516,24809.17
1121,24532,24831.32
1122,24540,24853.47
1123,24552,24875.62
1124,24560,24897.77
1125,24572,24919.92
1126,24584,24942.07
1127,24592,24964.22
1128,24608,24986.37
1129,24620,25008.52
1130,24632,25030.68
1131,24644,25052.83
1132,24656,25074.98
1133,24668,25097.13
1134,24680,25119.28
1135,24684,25141.43
1136,24676,25163.58
1137,24656,25185.73
1138,24620,25207.88
1139,24584,25230.03
1140,24548,25252.19
1141,24516,25274.34
1142,24500,25296.49
1143,24484,25318.64
1144,24476,25340.79
1145,24472,25362.94
1146,24460,25385.09
1147,24456,25407.24
1148,24452,25429.39
1149,24456,25451.55
1150,24456,25473.70
1151,24460,25495.85
1152,24460,25518.00
1153,24464,25540.15
1154,24456,25562.30
1155,24452,25584.45
1156,24452,25606.60
1157,24452,25628.75
1158,24456,25650.90
1159,24460,25673.06
1160,24476,25695.21
1161,24488,25717.36
1162,24500,25739.51
1163,24512,25761.66
1164,24516,25783.81
1165,24528,25805.96
1166,24540,25828.11
1167,24548,25850.26
1168,24560,25872.42
1169,24572,25894.57
1170,24584,25916.72
1171,24596,25938.87
1172,24604,25961.02
1173,24616,25983.17
1174,24628,26005.32
1175,24636,26027.47
1176,24648,26049.62
1177,24660,26071.77
1178,24668,26093.93
1179,24684,26116.08
1180,24696,26138.23
1181,24700,26160.38
1182,24692,26182.53
1183,24668,26204.68
1184,24640,26226.83
1185,24596,26248.98
1186,24568,26271.13
1187,24540,26293.28
1188,24520,26315.44
1189,24516,26337.59
1190,24512,26359.74
1191,24512,26381.89
1192,24512,26404.04
1193,24516,26426.19
1194,24516,26448.34
1195,24524,26470.49
1196,24520,26492.64
1197,24524,26514.80
1198,24528,26536.95
1199,24528,26559.10
1200,24528,26581.25
1201,24532,26603.40
1202,24532,26625.55
1203,24532,26647.70
1204,24544,26669.85
1205,24552,26692.00
1206,24560,26714.15
1207,24568,26736.31
1208,24584,26758.46
1209,24592,26780.61
1210,24604,26802.76
1211,24612,26824.91
1212,24620,26847.06
1213,24624,26869.21
1214,24636,26891.36
1215,24640,26913.51
1216,24656,26935.67
1217,24660,26957.82
1218,24672,26979.97
1219,24680,27002.12
1220,24688,27024.27
1221,24692,27046.42
1222,24700,27068.57
1223,24700,27090.72
1224,24688,27112.87
1225,24668,27135.02
1226,24632,27157.18
1227,24604,27179.33
1228,24580,27201.48
1229,24560,27223.63
1230,24548,27245.78
1231,24544,27267.93
1232,24548,27290.08
1233,24548,27312.23
1234,24552,27334.38
1235,24564,27356.53
1236,24576,27378.69
1237,24580,27400.84
1238,24584,27422.99
1239,24588,27445.14
1240,24588,27467.29
1241,24584,27489.44
1242,24580,27511.59
1243,24584,27533.74
1244,24588,27555.89
1245,24588,27578.05
1246,24600,27600.20
1247,24612,27622.35
1248,24620,27644.50
1249,24628,27666.65
1250,24640,27688.80
1251,24648,27710.95
1252,24656,27733.10
1253,24664,27755.25
1254,24672,27777.40
1255,24680,27799.56
1256,24688,27821.71
1257,24696,27843.86
1258,24704,27866.01
1259,24712,27888.16
1260,24720,27910.31
1261,24716,27932.46
1262,24704,27954.61
1263,24680,27976.76
1264,24648,27998.91
1265,24616,28021.07
1266,24592,28043.22
1267,24576,28065.37
1268,24564,28087.52
1269,24568,28109.67
1270,24564,28131.82
1271,24568,28153.97
1272,24576,28176.12
1273,24584,28198.27
1274,24592,28220.43
1275,24600,28242.58
1276,24604,28264.73
1277,24604,28286.88
1278,24604,28309.03
1279,24604,28331.18
1280,24600,28353.33
1281,24604,28375.48
1282,24608,28397.63
1283,24612,28419.78
1284,24624,28441.94
1285,24636,28464.09
1286,24648,28486.24
1287,24656,28508.39
1288,24668,28530.54
1289,24676,28552.69
1290,24688,28574.84
1291,24696,28596.99
1292,24712,28619.14
1293,24720,28641.30
1294,24728,28663.45
1295,24740,28685.60
1296,24748,28707.75
1297,24756,28729.90
1298,24756,28752.05
1299,24748,28774.20
1300,24728,28796.35
1301,24696,28818.50
1302,24652,28840.65
1303,24616,28862.81
1304,24588,28884.96
1305,24568,28907.11
1306,24556,28929.26
1307,24552,28951.41
1308,24556,28973.56
1309,24552,28995.71
1310,24556,29017.86
1311,24560,29040.01
1312,24568,29062.16
1313,24572,29084.32
1314,24576,29106.47
1315,24584,29128.62
1316,24580,29150.77
1317,24576,29172.92
1318,24576,29195.07
1319,24580,29217.22
1320,24580,29239.37
1321,24588,29261.52
1322,24600,29283.68
1323,24616,29305.83
1324,24624,29327.98
1325,24632,29350.13
1326,24644,29372.28
1327,24656,29394.43
1328,24668,29416.58
1329,24680,29438.73
1330,24684,29460.88
1331,24700,29483.03
1332,24708,29505.19
1333,24720,29527.34
1334,24724,29549.49
1335,24732,29571.64
1336,24740,29593.79
1337,24752,29615.94
1338,24756,29638.09
1339,24752,29660.24
1340,24732,29682.39
1341,24700,29704.55
1342,24660,29726.70
1343,24620,29748.85
1344,24584,29771.00
1345,24564,29793.15
1346,24548,29815.30
1347,24540,29837.45
1348,24536,29859.60
1349,24536,29881.75
1350,24540,29903.90
1351,24544,29926.06
1352,24556,29948.21
1353,24556,29970.36
1354,24564,29992.51
1355,24564,30014.66
1356,24564,30036.81
1357,24564,30058.96
1358,24564,30081.11
1359,24564,30103.26
1360,24568,30125.41
1361,24576,30147.57
1362,24584,30169.72
1363,24596,30191.87
1364,24604,30214.02
1365,24616,30236.17
1366,24624,30258.32
1367,24632,30280.47
1368,24644,30302.62
1369,24656,30324.77
1370,24668,30346.93
1371,24680,30369.08
1372,24688,30391.23
1373,24700,30413.38
1374,24708,30435.53
1375,24716,30457.68
1376,24724,30479.83
1377,24728,30501.98
1378,24736,30524.13
1379,24740,30546.28
1380,24732,30568.44
1381,24712,30590.59
1382,24680,30612.74
1383,24636,30634.89
1384,24592,30657.04
1385,24556,30679.19
1386,24524,30701.34
1387,24516,30723.49
1388,24504,30745.64
1389,24508,30767.80
1390,24512,30789.95
1391,24520,30812.10
1392,24524,30834.25
1393,24532,30856.40
1394,24540,30878.55
1395,24544,30900.70
1396,24544,30922.85
1397,24540,30945.00
1398,24540,30967.15
1399,24536,30989.31
1400,24540,31011.46
1401,24544,31033.61
1402,24552,31055.76
1403,24560,31077.91
1404,24568,31100.06
1405,24580,31122.21
1406,24592,31144.36
1407,24604,31166.51
1408,24616,31188.66
1409,24628,31210.82
1410,24640,31232.97
1411,24648,31255.12
1412,24660,31277.27
1413,24668,31299.42
1414,24680,31321.57
1415,24684,31343.72
1416,24692,31365.87
1417,24696,31388.02
1418,24700,31410.18
1419,24700,31432.33
1420,24688,31454.48
1421,24664,31476.63
1422,24624,31498.78
1423,24580,31520.93
1424,24536,31543.08
1425,24504,31565.23
1426,24484,31587.38
1427,24480,31609.53
1428,24476,31631.69
1429,24480,31653.84
1430,24488,31675.99
1431,24504,31698.14
1432,24512,31720.29
1433,24524,31742.44
1434,24528,31764.59
1435,24528,31786.74
1436,24528,31808.89
1437,24524,31831.04
1438,24520,31853.20
1439,24520,31875.35
1440,24524,31897.50
1441,24524,31919.65
1442,24536,31941.80
1443,24548,31963.95
1444,24556,31986.10
1445,24568,32008.25
1446,24576,32030.40
1447,24588,32052.56
1448,24604,32074.71
1449,24616,32096.86
1450,24624,32119.01
1451,24640,32141.16
1452,24648,32163.31
1453,24660,32185.46
1454,24664,32207.61
1455,24660,32229.76
1456,24640,32251.91
1457,24604,32274.07
1458,24560,32296.22
1459,24524,32318.37
1460,24492,32340.52
1461,24476,32362.67
1462,24468,32384.82
1463,24468,32406.97
1464,24476,32429.12
1465,24488,32451.27
1466,24496,32473.43
1467,24516,32495.58
1468,24528,32517.73
1469,24532,32539.88
1470,24536,32562.03
1471,24532,32584.18
1472,24532,32606.33
1473,24524,32628.48
1474,24520,32650.63
1475,24520,32672.78
1476,24528,32694.94
1477,24532,32717.09
1478,24540,32739.24
1479,24552,32761.39
1480,24564,32783.54
1481,24580,32805.69
1482,24592,32827.84
1483,24604,32849.99
1484,24616,32872.14
1485,24624,32894.29
1486,24640,32916.45
1487,24640,32938.60
1488,24632,32960.75
1489,24612,32982.90
1490,24572,33005.05
1491,24528,33027.20
1492,24484,33049.35
1493,24448,33071.50
1494,24428,33093.65
1495,24424,33115.81
1496,24420,33137.96
1497,24424,33160.11
1498,24436,33182.26
1499,24452,33204.41
1500,24464,33226.56
1501,24476,33248.71
1502,24476,33270.86
1503,24480,33293.01
1504,24472,33315.16
1505,24464,33337.32
1506,24460,33359.47
1507,24464,33381.62
1508,24464,33403.77
1509,24472,33425.92
1510,24484,33448.07
1511,24492,33470.22
1512,24504,33492.37
1513,24516,33514.52
1514,24528,33536.68
1515,24544,33558.83
1516,24556,33580.98
1517,24572,33603.13
1518,24580,33625.28
1519,24576,33647.43
1520,24548,33669.58
1521,24496,33691.73
1522,24436,33713.88
1523,24376,33736.03
1524,24336,33758.19
1525,24312,33780.34
1526,24304,33802.49
1527,24300,33824.64
1528,24304,33846.79
1529,24316,33868.94
1530,24328,33891.09
1531,24340,33913.24
1532,24352,33935.39
1533,24356,33957.54
1534,24356,33979.70
1535,24356,34001.85
1536,24348,34024.00
1537,24348,34046.15
1538,24344,34068.30
1539,24344,34090.45
1540,24352,34112.60
1541,24364,34134.75
1542,24372,34156.90
1543,24380,34179.06
1544,24392,34201.21
1545,24412,34223.36
1546,24424,34245.51
1547,24444,34267.66
1548,24460,34289.81
1549,24472,34311.96
1550,24476,34334.11
1551,24456,34356.26
1552,24416,34378.41
1553,24356,34400.57
1554,24288,34422.72
1555,24236,34444.87
1556,24200,34467.02
1557,24180,34489.17
1558,24176,34511.32
1559,24176,34533.47
1560,24184,34555.62
1561,24192,34577.77
1562,24208,34599.93
1563,24220,34622.08
1564,24236,34644.23
1565,24244,34666.38
1566,24252,34688.53
1567,24252,34710.68
1568,24248,34732.83
1569,24248,34754.98
1570,24244,34777.13
1571,24252,34799.28
1572,24256,34821.44
1573,24264,34843.59
1574,24276,34865.74
1575,24292,34887.89
1576,24308,34910.04
1577,24324,34932.19
1578,24336,34954.34
1579,24352,34976.49
1580,24360,34998.64
1581,24380,35020.79
1582,24388,35042.95
1583,24404,35065.10
1584,24416,35087.25
1585,24432,35109.40
1586,24436,35131.55
1587,24408,35153.70
1588,24360,35175.85
1589,24292,35198.00
1590,24224,35220.15
1591,24168,35242.31
1592,24124,35264.46
1593,24108,35286.61
1594,24104,35308.76
1595,24100,35330.91
1596,24108,35353.06
1597,24112,35375.21
1598,24124,35397.36
1599,24140,35419.51
1600,24156,35441.66
1601,24160,35463.82
1602,24160,35485.97
1603,24160,35508.12
1604,24160,35530.27
1605,24156,35552.42
1606,24160,35574.57
1607,24164,35596.72
1608,24172,35618.87
1609,24184,35641.02
1610,24196,35663.17
1611,24212,35685.33
1612,24220,35707.48
1613,24236,35729.63
1614,24248,35751.78
1615,24268,35773.93
1616,24280,35796.08
1617,24296,35818.23
1618,24312,35840.38
1619,24328,35862.53
1620,24336,35884.69
1621,24348,35906.84
1622,24356,35928.99
1623,24372,35951.14
1624,24380,35973.29
1625,24392,35995.44
1626,24404,36017.59
1627,24420,36039.74
1628,24432,36061.89
1629,24424,36084.04
1630,24388,36106.20
1631,24328,36128.35
1632,24252,36150.50
1633,24184,36172.65
1634,24132,36194.80
1635,24104,36216.95
1636,24088,36239.10
1637,24088,36261.25
1638,24096,36283.40
1639,24104,36305.56
1640,24120,36327.71
1641,24128,36349.86
1642,24144,36372.01
1643,24148,36394.16
1644,24156,36416.31
1645,24152,36438.46
1646,24152,36460.61
1647,24148,36482.76
1648,24144,36504.91
1649,24140,36527.07
1650,24144,36549.22
1651,24148,36571.37
1652,24160,36593.52
1653,24172,36615.67
1654,24188,36637.82
1655,24204,36659.97
1656,24224,36682.12
1657,24240,36704.27
1658,24252,36726.42
1659,24268,36748.58
1660,24280,36770.73
1661,24288,36792.88
1662,24300,36815.03
1663,24312,36837.18
1664,24320,36859.33
1665,24332,36881.48
1666,24344,36903.63
1667,24356,36925.78
1668,24368,36947.94
1669,24368,36970.09
1670,24344,36992.24
1671,24304,37014.39
1672,24240,37036.54
1673,24180,37058.69
1674,24132,37080.84
1675,24104,37102.99
1676,24096,37125.14
1677,24096,37147.29
1678,24108,37169.45
1679,24124,37191.60
1680,24144,37213.75
1681,24164,37235.90
1682,24188,37258.05
1683,24200,37280.20
1684,24204,37302.35
1685,24200,37324.50
1686,24192,37346.65
1687,24184,37368.81
1688,24176,37390.96
1689,24172,37413.11
1690,24176,37435.26
1691,24184,37457.41
1692,24196,37479.56
1693,24208,37501.71
1694,24224,37523.86
1695,24240,37546.01
1696,24260,37568.16
1697,24272,37590.32
1698,24280,37612.47
1699,24296,37634.62
1700,24304,37656.77
1701,24316,37678.92
1702,24324,37701.07
1703,24344,37723.22
1704,24352,37745.37
1705,24352,37767.52
1706,24340,37789.67
1707,24296,37811.83
1708,24236,37833.98
1709,24172,37856.13
1710,24112,37878.28
1711,24072,37900.43
1712,24056,37922.58
1713,24048,37944.73
1714,24060,37966.88
1715,24076,37989.03
1716,24096,38011.19
1717,24116,38033.34
1718,24140,38055.49
1719,24148,38077.64
1720,24152,38099.79
1721,24152,38121.94
1722,24144,38144.09
1723,24132,38166.24
1724,24128,38188.39
1725,24128,38210.54
1726,24128,38232.70
1727,24136,38254.85
1728,24144,38277.00
1729,24156,38299.15
1730,24168,38321.30
1731,24184,38343.45
1732,24200,38365.60
1733,24216,38387.75
1734,24232,38409.90
1735,24244,38432.05
1736,24260,38454.21
1737,24272,38476.36
1738,24284,38498.51
1739,24288,38520.66
1740,24264,38542.81
1741,24208,38564.96
1742,24136,38587.11
1743,24056,38609.26
1744,23996,38631.41
1745,23956,38653.57
1746,23936,38675.72
1747,23936,38697.87
1748,23944,38720.02
1749,23964,38742.17
1750,23980,38764.32
1751,24000,38786.47
1752,24024,38808.62
1753,24036,38830.77
1754,24048,38852.92
1755,24052,38875.08
1756,24048,38897.23
1757,24044,38919.38
1758,24044,38941.53
1759,24044,38963.68
1760,24052,38985.83
1761,24060,39007.98
1762,24072,39030.13
1763,24088,39052.28
1764,24104,39074.44
1765,24124,39096.59
1766,24140,39118.74
1767,24160,39140.89
1768,24176,39163.04
1769,24200,39185.19
1770,24216,39207.34
1771,24232,39229.49
1772,24252,39251.64
1773,24272,39273.79
1774,24272,39295.95
1775,24248,39318.10
1776,24196,39340.25
1777,24112,39362.40
1778,24028,39384.55
1779,23952,39406.70
1780,23904,39428.85
1781,23880,39451.00
1782,23868,39473.15
1783,23872,39495.30
1784,23880,39517.46
1785,23892,39539.61
1786,23904,39561.76
1787,23920,39583.91
1788,23932,39606.06
1789,23952,39628.21
1790,23960,39650.36
1791,23964,39672.51
1792,23960,39694.66
1793,23956,39716.82
1794,23956,39738.97
1795,23960,39761.12
1796,23968,39783.27
1797,23984,39805.42
1798,24000,39827.57
1799,24016,39849.72
1800,24036,39871.87
1801,24056,39894.02
1802,24072,39916.17
1803,24092,39938.33
1804,24108,39960.48
1805,24120,39982.63
1806,24136,40004.78
1807,24148,40026.93
1808,24160,40049.08
1809,24172,40071.23
1810,24180,40093.38
1811,24196,40115.53
1812,24204,40137.69
1813,24220,40159.84
1814,24220,40181.99
1815,24196,40204.14
1816,24140,40226.29
1817,24052,40248.44
1818,23960,40270.59
1819,23876,40292.74
1820,23820,40314.89
1821,23784,40337.04
1822,23776,40359.20
1823,23776,40381.35
1824,23788,40403.50
1825,23800,40425.65
1826,23816,40447.80
1827,23840,40469.95
1828,23856,40492.10
1829,23872,40514.25
1830,23884,40536.40
1831,23884,40558.55
1832,23880,40580.71
1833,23876,40602.86
1834,23876,40625.01
1835,23880,40647.16
1836,23892,40669.31
1837,23908,40691.46
1838,23928,40713.61
1839,23944,40735.76
1840,23964,40757.91
1841,23980,40780.07
1842,24000,40802.22
1843,24012,40824.37
1844,24032,40846.52
1845,24052,40868.67
1846,24064,40890.82
1847,24084,40912.97
1848,24096,40935.12
1849,24112,40957.27
1850,24120,40979.42
1851,24132,41001.58
1852,24144,41023.73
1853,24152,41045.88
1854,24160,41068.03
1855,24176,41090.18
1856,24188,41112.33
1857,24192,41134.48
1858,24164,41156.63
1859,24096,41178.78
1860,24008,41200.94
1861,23920,41223.09
1862,23852,41245.24
1863,23808,41267.39
1864,23792,41289.54
1865,23788,41311.69
1866,23808,41333.84
1867,23828,41355.99
1868,23852,41378.14
1869,23880,41400.29
1870,23904,41422.45
1871,23924,41444.60
1872,23928,41466.75
1873,23932,41488.90
1874,23928,41511.05
1875,23916,41533.20
1876,23904,41555.35
1877,23900,41577.50
1878,23900,41599.65
1879,23904,41621.80
1880,23920,41643.96
1881,23928,41666.11
1882,23948,41688.26
1883,23964,41710.41
1884,23984,41732.56
1885,24004,41754.71
1886,24020,41776.86
1887,24028,41799.01
1888,24048,41821.16
1889,24056,41843.32
1890,24068,41865.47
1891,24076,41887.62
1892,24088,41909.77
1893,24096,41931.92
1894,24108,41954.07
1895,24112,41976.22
1896,24116,41998.37
1897,24088,42020.52
1898,24028,42042.67
1899,23952,42064.83
1900,23876,42086.98
1901,23820,42109.13
1902,23784,42131.28
1903,23772,42153.43
1904,23776,42175.58
1905,23800,42197.73
1906,23824,42219.88
1907,23856,42242.03
1908,23884,42264.18
1909,23916,42286.34
1910,23936,42308.49
1911,23948,42330.64
1912,23944,42352.79
1913,23936,42374.94
1914,23928,42397.09
1915,23920,42419.24
1916,23920,42441.39
1917,23920,42463.54
1918,23932,42485.70
1919,23944,42507.85
1920,23960,42530.00
1921,23976,42552.15
1922,23996,42574.30
1923,24012,42596.45
1924,24028,42618.60
1925,24044,42640.75
1926,24060,42662.90
1927,24080,42685.05
1928,24092,42707.21
1929,24116,42729.36
1930,24120,42751.51
1931,24100,42773.66
1932,24044,42795.81
1933,23964,42817.96
1934,23872,42840.11
1935,23800,42862.26
1936,23748,42884.41
1937,23732,42906.57
1938,23728,42928.72
1939,23748,42950.87
1940,23768,42973.02
1941,23796,42995.17
1942,23828,43017.32
1943,23860,43039.47
1944,23884,43061.62
1945,23896,43083.77
1946,23904,43105.92
1947,23904,43128.08
1948,23900,43150.23
1949,23892,43172.38
1950,23892,43194.53
1951,23896,43216.68
1952,23904,43238.83
1953,23916,43260.98
1954,23932,43283.13
1955,23952,43305.28
1956,23972,43327.43
1957,23996,43349.59
1958,24016,43371.74
1959,24036,43393.89
1960,24056,43416.04
1961,24068,43438.19
1962,24092,43460.34
1963,24104,43482.49
1964,24100,43504.64
1965,24068,43526.79
1966,23996,43548.95
1967,23896,43571.10
1968,23800,43593.25
1969,23724,43615.40
1970,23676,43637.55
1971,23652,43659.70
1972,23648,43681.85
1973,23660,43704.00
1974,23672,43726.15
1975,23692,43748.30
1976,23712,43770.46
1977,23740,43792.61
1978,23764,43814.76
1979,23780,43836.91
1980,23780,43859.06
1981,23784,43881.21
1982,23780,43903.36
1983,23776,43925.51
1984,23776,43947.66
1985,23788,43969.82
1986,23800,43991.97
1987,23820,44014.12
1988,23840,44036.27
1989,23872,44058.42
1990,23892,44080.57
1991,23916,44102.72
1992,23940,44124.87
1993,23964,44147.02
1994,23984,44169.17
1995,24004,44191.33
1996,24028,44213.48
1997,24040,44235.63
1998,24036,44257.78
1999,23992,44279.93
2000,23912,44302.08
2001,23820,44324.23
2002,23728,44346.38
2003,23664,44368.53
2004,23632,44390.68
2005,23616,44412.84
2006,23624,44434.99
2007,23636,44457.14
2008,23656,44479.29
2009,23680,44501.44
2010,23704,44523.59
2011,23724,44545.74
2012,23744,44567.89
2013,23760,44590.04
2014,23764,44612.20
2015,23768,44634.35
2016,23768,44656.50
2017,23772,44678.65
2018,23776,44700.80
2019,23788,44722.95
2020,23804,44745.10
2021,23828,44767.25
2022,23844,44789.40
2023,23872,44811.55
2024,23896,44833.71
2025,23920,44855.86
2026,23948,44878.01
2027,23964,44900.16
2028,23992,44922.31
2029,24008,44944.46
2030,24024,44966.61
2031,24040,44988.76
2032,24060,45010.91
2033,24076,45033.06
2034,24080,45055.22
2035,24052,45077.37
2036,23992,45099.52
2037,23904,45121.67
2038,23820,45143.82
2039,23752,45165.97
2040,23708,45188.12
2041,23696,45210.27
2042,23696,45232.42
2043,23708,45254.58
2044,23724,45276.73
2045,23748,45298.88
2046,23776,45321.03
2047,23800,45343.18
2048,23820,45365.33
2049,23832,45387.48
2050,23832,45409.63
2051,23836,45431.78
2052,23828,45453.93
2053,23824,45476.09
2054,23828,45498.24
2055,23840,45520.39
2056,23856,45542.54
2057,23876,45564.69
2058,23896,45586.84
2059,23916,45608.99
2060,23940,45631.14
2061,23964,45653.29
2062,23984,45675.45
2063,24000,45697.60
2064,24016,45719.75
2065,24028,45741.90
2066,24044,45764.05
2067,24060,45786.20
2068,24076,45808.35
2069,24088,45830.50
2070,24088,45852.65
2071,24060,45874.80
2072,24004,45896.96
2073,23932,45919.11
2074,23864,45941.26
2075,23812,45963.41
2076,23780,45985.56
2077,23768,46007.71
2078,23772,46029.86
2079,23792,46052.01
2080,23812,46074.16
2081,23848,46096.31
2082,23872,46118.47
2083,23896,46140.62
2084,23912,46162.77
2085,23916,46184.92
2086,23912,46207.07
2087,23904,46229.22
2088,23900,46251.37
2089,23896,46273.52
2090,23900,46295.67
2091,23908,46317.83
2092,23916,46339.98
2093,23940,46362.13
2094,23956,46384.28
2095,23976,46406.43
2096,24004,46428.58
2097,24028,46450.73
2098,24044,46472.88
2099,24064,46495.03
2100,24076,46517.18
2101,24096,46539.34
2102,24116,46561.49
2103,24132,46583.64
2104,24136,46605.79
2105,24116,46627.94
2106,24072,46650.09
2107,23996,46672.24
2108,23916,46694.39
2109,23840,46716.54
2110,23800,46738.70
2111,23776,46760.85
2112,23776,46783.00
2113,23792,46805.15
2114,23804,46827.30
2115,23828,46849.45
2116,23856,46871.60
2117,23880,46893.75
2118,23900,46915.90
2119,23912,46938.05
2120,23912,46960.21
2121,23908,46982.36
2122,23908,47004.51
2123,23900,47026.66
2124,23900,47048.81
2125,23904,47070.96
2126,23916,47093.11
2127,23928,47115.26
2128,23944,47137.41
2129,23960,47159.56
2130,23976,47181.72
2131,23996,47203.87
2132,24016,47226.02
2133,24036,47248.17
2134,24052,47270.32
2135,24072,47292.47
2136,24092,47314.62
2137,24104,47336.77
2138,24124,47358.92
2139,24136,47381.08
2140,24140,47403.23
2141,24120,47425.38
2142,24064,47447.53
2143,23980,47469.68
2144,23888,47491.83
2145,23808,47513.98
2146,23756,47536.13
2147,23732,47558.28
2148,23720,47580.43
2149,23720,47602.59
2150,23728,47624.74
2151,23740,47646.89
2152,23760,47669.04
2153,23780,47691.19
2154,23800,47713.34
2155,23816,47735.49
2156,23828,47757.64
2157,23824,47779.79
2158,23824,47801.95
2159,23820,47824.10
2160,23820,47846.25
2161,23824,47868.40
2162,23832,47890.55
2163,23844,47912.70
2164,23864,47934.85
2165,23880,47957.00
2166,23904,47979.15
2167,23924,48001.30
2168,23944,48023.46
2169,23964,48045.61
2170,23984,48067.76
2171,24004,48089.91
2172,24020,48112.06
2173,24040,48134.21
2174,24056,48156.36
2175,24068,48178.51
2176,24084,48200.66
2177,24100,48222.81
2178,24108,48244.97
2179,24100,48267.12
2180,24056,48289.27
2181,23980,48311.42
2182,23896,48333.57
2183,23816,48355.72
2184,23752,48377.87
2185,23724,48400.02
2186,23716,48422.17
2187,23716,48444.33
2188,23728,48466.48
2189,23740,48488.63
2190,23760,48510.78
2191,23780,48532.93
2192,23800,48555.08
2193,23816,48577.23
2194,23832,48599.38
2195,23832,48621.53
2196,23832,48643.68
2197,23832,48665.84
2198,23832,48687.99
2199,23836,48710.14
2200,23836,48732.29
2201,23852,48754.44
2202,23864,48776.59
2203,23880,48798.74
2204,23904,48820.89
2205,23924,48843.04
2206,23944,48865.19
2207,23968,48887.35
2208,23988,48909.50
2209,24008,48931.65
2210,24024,48953.80
2211,24036,48975.95
2212,24052,48998.10
2213,24064,49020.25
2214,24076,49042.40
2215,24092,49064.55
2216,24108,49086.71
2217,24124,49108.86
2218,24140,49131.01
2219,24140,49153.16
2220,24116,49175.31
2221,24060,49197.46
2222,23984,49219.61
2223,23908,49241.76
2224,23844,49263.91
2225,23808,49286.06
2226,23796,49308.22
2227,23796,49330.37
2228,23812,49352.52
2229,23828,49374.67
2230,23848,49396.82
2231,23872,49418.97
2232,23892,49441.12
2233,23908,49463.27
2234,23920,49485.42
2235,23920,49507.58
2236,23912,49529.73
2237,23904,49551.88
2238,23896,49574.03
2239,23896,49596.18
2240,23896,49618.33
2241,23904,49640.48
2242,23916,49662.63
2243,23932,49684.78
2244,23948,49706.93
2245,23968,49729.09
2246,23984,49751.24
2247,24008,49773.39
2248,24024,49795.54
2249,24036,49817.69
2250,24048,49839.84
2251,24060,49861.99
2252,24072,49884.14
2253,24088,49906.29
2254,24100,49928.44
2255,24116,49950.60
2256,24124,49972.75
2257,24116,49994.90
2258,24072,50017.05
2259,24008,50039.20
2260,23936,50061.35
2261,23876,50083.50
2262,23828,50105.65
2263,23808,50127.80
2264,23804,50149.96
2265,23820,50172.11
2266,23840,50194.26
2267,23868,50216.41
2268,23896,50238.56
2269,23924,50260.71
2270,23944,50282.86
2271,23948,50305.01
2272,23948,50327.16
2273,23936,50349.31
2274,23928,50371.47
2275,23924,50393.62
2276,23924,50415.77
2277,23928,50437.92
2278,23940,50460.07
2279,23952,50482.22
2280,23968,50504.37
2281,23988,50526.52
2282,24004,50548.67
2283,24020,50570.83
2284,24036,50592.98
2285,24056,50615.13
2286,24072,50637.28
2287,24084,50659.43
2288,24096,50681.58
2289,24108,50703.73
2290,24120,50725.88
2291,24128,50748.03
2292,24116,50770.18
2293,24064,50792.34
2294,23984,50814.49
2295,23892,50836.64
2296,23804,50858.79
2297,23736,50880.94
2298,23692,50903.09
2299,23676,50925.24
2300,23676,50947.39
2301,23684,50969.54
2302,23700,50991.69
2303,23720,51013.85
2304,23740,51036.00
2305,23760,51058.15
2306,23776,51080.30
2307,23788,51102.45
2308,23792,51124.60
2309,23784,51146.75
2310,23780,51168.90
2311,23772,51191.05
2312,23768,51213.21
2313,23768,51235.36
2314,23776,51257.51
2315,23788,51279.66
2316,23804,51301.81
2317,23824,51323.96
2318,23840,51346.11
2319,23860,51368.26
2320,23876,51390.41
2321,23896,51412.56
2322,23920,51434.72
2323,23936,51456.87
2324,23952,51479.02
2325,23964,51501.17
2326,23976,51523.32
2327,23988,51545.47
2328,23984,51567.62
2329,23964,51589.77
2330,23904,51611.92
2331,23816,51634.08
2332,23720,51656.23
2333,23636,51678.38
2334,23576,51700.53
2335,23548,51722.68
2336,23536,51744.83
2337,23544,51766.98
2338,23560,51789.13
2339,23584,51811.28
2340,23608,51833.43
2341,23632,51855.59
2342,23660,51877.74
2343,23680,51899.89
2344,23688,51922.04
2345,23692,51944.19
2346,23692,51966.34
2347,23688,51988.49
2348,23688,52010.64
2349,23692,52032.79
2350,23704,52054.94
2351,23716,52077.10
2352,23736,52099.25
2353,23756,52121.40
2354,23780,52143.55
2355,23800,52165.70
2356,23828,52187.85
2357,23844,52210.00
2358,23868,52232.15
2359,23884,52254.30
2360,23904,52276.46
2361,23920,52298.61
2362,23940,52320.76
2363,23956,52342.91
2364,23968,52365.06
2365,23960,52387.21
2366,23916,52409.36
2367,23840,52431.51
2368,23752,52453.66
2369,23672,52475.81
2370,23608,52497.97
2371,23580,52520.12
2372,23572,52542.27
2373,23576,52564.42
2374,23596,52586.57
2375,23620,52608.72
2376,23644,52630.87
2377,23672,52653.02
2378,23696,52675.17
2379,23720,52697.32
2380,23736,52719.48
2381,23740,52741.63
2382,23740,52763.78
2383,23736,52785.93
2384,23732,52808.08
2385,23736,52830.23
2386,23748,52852.38
2387,23764,52874.53
2388,23784,52896.68
2389,23808,52918.84
2390,23836,52940.99
2391,23856,52963.14
2392,23884,52985.29
2393,23908,53007.44
2394,23928,53029.59
2395,23948,53051.74
2396,23960,53073.89
2397,23976,53096.04
2398,23992,53118.19
2399,24004,53140.35
2400,24020,53162.50
2401,24032,53184.65
2402,24044,53206.80
2403,24056,53228.95
2404,24072,53251.10
2405,24076,53273.25
2406,24056,53295.40
2407,24008,53317.55
2408,23932,53339.71
2409,23848,53361.86
2410,23772,53384.01
2411,23720,53406.16
2412,23700,53428.31
2413,23696,53450.46
2414,23704,53472.61
2415,23720,53494.76
2416,23748,53516.91
2417,23776,53539.06
2418,23804,53561.22
2419,23828,53583.37
2420,23844,53605.52
2421,23848,53627.67
2422,23848,53649.82
2423,23840,53671.97
2424,23832,53694.12
2425,23828,53716.27
2426,23832,53738.42
2427,23844,53760.57
2428,23860,53782.73
2429,23880,53804.88
2430,23900,53827.03
2431,23920,53849.18
2432,23944,53871.33
2433,23964,53893.48
2434,23980,53915.63
2435,23996,53937.78
2436,24008,53959.93
2437,24020,53982.09
2438,24028,54004.24
2439,24036,54026.39
2440,24052,54048.54
2441,24064,54070.69
2442,24076,54092.84
2443,24064,54114.99
2444,24028,54137.14
2445,23968,54159.29
2446,23896,54181.44
2447,23824,54203.60
2448,23768,54225.75
2449,23744,54247.90
2450,23736,54270.05
2451,23744,54292.20
2452,23760,54314.35
2453,23796,54336.50
2454,23824,54358.65
2455,23856,54380.80
2456,23888,54402.96
2457,23900,54425.11
2458,23908,54447.26
2459,23904,54469.41
2460,23900,54491.56
2461,23892,54513.71
2462,23892,54535.86
2463,23896,54558.01
2464,23904,54580.16
2465,23916,54602.31
2466,23936,54624.47
2467,23956,54646.62
2468,23976,54668.77
2469,24000,54690.92
2470,24020,54713.07
2471,24044,54735.22
2472,24060,54757.37
2473,24076,54779.52
2474,24096,54801.67
2475,24112,54823.82
2476,24128,54845.98
2477,24136,54868.13
2478,24152,54890.28
2479,24160,54912.43
2480,24172,54934.58
2481,24184,54956.73
2482,24196,54978.88
2483,24208,55001.03
2484,24200,55023.18
2485,24164,55045.34
2486,24096,55067.49
2487,23996,55089.64
2488,23900,55111.79
2489,23820,55133.94
2490,23768,55156.09
2491,23740,55178.24
2492,23740,55200.39
2493,23752,55222.54
2494,23772,55244.69
2495,23792,55266.85
2496,23820,55289.00
2497,23840,55311.15
2498,23856,55333.30
2499,23860,55355.45
2500,23864,55377.60
2501,23856,55399.75
2502,23844,55421.90
2503,23836,55444.05
2504,23836,55466.20
2505,23840,55488.36
2506,23848,55510.51
2507,23860,55532.66
2508,23876,55554.81
2509,23900,55576.96
2510,23916,55599.11
2511,23940,55621.26
2512,23964,55643.41
2513,23984,55665.56
2514,24000,55687.72
2515,24020,55709.87
2516,24040,55732.02
2517,24052,55754.17
2518,24068,55776.32
2519,24080,55798.47
2520,24096,55820.62
2521,24108,55842.77
2522,24116,55864.92
2523,24112,55887.07
2524,24072,55909.23
2525,24000,55931.38
2526,23920,55953.53
2527,23836,55975.68
2528,23772,55997.83
2529,23736,56019.98
2530,23724,56042.13
2531,23732,56064.28
2532,23748,56086.43
2533,23768,56108.59
2534,23800,56130.74
2535,23832,56152.89
2536,23860,56175.04
2537,23880,56197.19
2538,23888,56219.34
2539,23888,56241.49
2540,23880,56263.64
2541,23872,56285.79
2542,23864,56307.94
2543,23860,56330.10
2544,23872,56352.25
2545,23884,56374.40
2546,23900,56396.55
2547,23924,56418.70
2548,23944,56440.85
2549,23964,56463.00
2550,23984,56485.15
2551,24008,56507.30
2552,24024,56529.45
2553,24044,56551.61
2554,24064,56573.76
2555,24080,56595.91
2556,24100,56618.06
2557,24116,56640.21
2558,24128,56662.36
2559,24140,56684.51
2560,24156,56706.66
2561,24156,56728.81
2562,24128,56750.97
2563,24068,56773.12
2564,23988,56795.27
2565,23916,56817.42
2566,23844,56839.57
2567,23808,56861.72
2568,23788,56883.87
2569,23784,56906.02
2570,23800,56928.17
2571,23824,56950.32
2572,23852,56972.48
2573,23884,56994.63
2574,23912,57016.78
2575,23928,57038.93
2576,23940,57061.08
2577,23936,57083.23
2578,23928,57105.38
2579,23916,57127.53
2580,23908,57149.68
2581,23900,57171.84
2582,23900,57193.99
2583,23908,57216.14
2584,23920,57238.29
2585,23936,57260.44
2586,23952,57282.59
2587,23972,57304.74
2588,23988,57326.89
2589,24000,57349.04
2590,24016,57371.19
2591,24032,57393.35
2592,24040,57415.50
2593,24052,57437.65
2594,24064,57459.80
2595,24064,57481.95
2596,24036,57504.10
2597,23984,57526.25
2598,23916,57548.40
2599,23844,57570.55
2600,23788,57592.70
2601,23748,57614.86
2602,23736,57637.01
2603,23744,57659.16
2604,23764,57681.31
2605,23792,57703.46
2606,23828,57725.61
2607,23868,57747.76
2608,23900,57769.91
2609,23920,57792.06
2610,23932,57814.22
2611,23928,57836.37
2612,23920,57858.52
2613,23912,57880.67
2614,23908,57902.82
2615,23908,57924.97
2616,23916,57947.12
2617,23920,57969.27
2618,23936,57991.42
2619,23948,58013.57
2620,23968,58035.73
2621,23984,58057.88
2622,24004,58080.03
2623,24016,58102.18
2624,24036,58124.33
2625,24052,58146.48
2626,24068,58168.63
2627,24084,58190.78
2628,24096,58212.93
2629,24068,58235.09
2630,24008,58257.24
2631,23932,58279.39
2632,23852,58301.54
2633,23784,58323.69
2634,23744,58345.84
2635,23728,58367.99
2636,23736,58390.14
2637,23752,58412.29
2638,23788,58434.44
2639,23820,58456.60
2640,23860,58478.75
2641,23892,58500.90
2642,23908,58523.05
2643,23916,58545.20
2644,23912,58567.35
2645,23900,58589.50
2646,23892,58611.65
2647,23884,58633.80
2648,23888,58655.95
2649,23888,58678.11
2650,23900,58700.26
2651,23912,58722.41
2652,23928,58744.56
2653,23944,58766.71
2654,23964,58788.86
2655,23980,58811.01
2656,23996,58833.16
2657,24008,58855.31
2658,24028,58877.47
2659,24048,58899.62
2660,24060,58921.77
2661,24052,58943.92
2662,24008,58966.07
2663,23932,58988.22
2664,23844,59010.37
2665,23760,59032.52
2666,23700,59054.67
2667,23676,59076.82
2668,23676,59098.98
2669,23692,59121.13
2670,23716,59143.28
2671,23752,59165.43
2672,23792,59187.58
2673,23824,59209.73
2674,23848,59231.88
2675,23860,59254.03
2676,23868,59276.18
2677,23864,59298.33
2678,23856,59320.49
2679,23848,59342.64
2680,23852,59364.79
2681,23856,59386.94
2682,23868,59409.09
2683,23884,59431.24
2684,23904,59453.39
2685,23920,59475.54
2686,23940,59497.69
2687,23960,59519.85
2688,23980,59542.00
2689,24000,59564.15
2690,24020,59586.30
2691,24040,59608.45
2692,24064,59630.60
2693,24076,59652.75
2694,24076,59674.90
2695,24040,59697.05
2696,23980,59719.20
2697,23904,59741.36
2698,23828,59763.51
2699,23776,59785.66
2700,23744,59807.81
2701,23740,59829.96
2702,23748,59852.11
2703,23776,59874.26
2704,23808,59896.41
2705,23844,59918.56
2706,23880,59940.72
2707,23904,59962.87
2708,23916,59985.02
2709,23920,60007.17
2710,23916,60029.32
2711,23908,60051.47
2712,23908,60073.62
2713,23904,60095.77
2714,23912,60117.92
2715,23920,60140.07
2716,23932,60162.23
2717,23948,60184.38
2718,23972,60206.53
2719,23992,60228.68
2720,24008,60250.83
2721,24032,60272.98
2722,24056,60295.13
2723,24076,60317.28
2724,24096,60339.43
2725,24116,60361.58
2726,24124,60383.74
2727,24104,60405.89
2728,24060,60428.04
2729,23996,60450.19
2730,23936,60472.34
2731,23888,60494.49
2732,23852,60516.64
2733,23844,60538.79
2734,23848,60560.94
2735,23868,60583.10
2736,23896,60605.25
2737,23932,60627.40
2738,23960,60649.55
2739,23988,60671.70
2740,23992,60693.85
2741,23996,60716.00
2742,23988,60738.15
2743,23972,60760.30
2744,23964,60782.45
2745,23960,60804.61
2746,23960,60826.76
2747,23964,60848.91
2748,23976,60871.06
2749,23988,60893.21
2750,24004,60915.36
2751,24020,60937.51
2752,24036,60959.66
2753,24052,60981.81
2754,24068,61003.97
2755,24080,61026.12
2756,24088,61048.27
2757,24088,61070.42
2758,24056,61092.57
2759,24004,61114.72
2760,23940,61136.87
2761,23876,61159.02
2762,23828,61181.17
2763,23804,61203.32
2764,23796,61225.48
2765,23812,61247.63
2766,23832,61269.78
2767,23864,61291.93
2768,23896,61314.08
2769,23928,61336.23
2770,23952,61358.38
2771,23964,61380.53
2772,23960,61402.68
2773,23956,61424.83
2774,23948,61446.99
2775,23940,61469.14
2776,23940,61491.29
2777,23944,61513.44
2778,23956,61535.59
2779,23968,61557.74
2780,23984,61579.89
2781,24000,61602.04
2782,24016,61624.19
2783,24036,61646.35
2784,24056,61668.50
2785,24072,61690.65
2786,24092,61712.80
2787,24108,61734.95
2788,24120,61757.10
2789,24116,61779.25
2790,24068,61801.40
2791,23992,61823.55
2792,23900,61845.70
2793,23808,61867.86
2794,23740,61890.01
2795,23704,61912.16
2796,23688,61934.31
2797,23696,61956.46
2798,23712,61978.61
2799,23740,62000.76
2800,23768,62022.91
2801,23792,62045.06
2802,23816,62067.22
2803,23824,62089.37
2804,23824,62111.52
2805,23816,62133.67
2806,23804,62155.82
2807,23796,62177.97
2808,23792,62200.12
2809,23796,62222.27
2810,23804,62244.42
2811,23824,62266.57
2812,23840,62288.73
2813,23860,62310.88
2814,23884,62333.03
2815,23900,62355.18
2816,23920,62377.33
2817,23940,62399.48
2818,23952,62421.63
2819,23972,62443.78
2820,23984,62465.93
2821,23992,62488.08
2822,23968,62510.24
2823,23912,62532.39
2824,23828,62554.54
2825,23732,62576.69
2826,23648,62598.84
2827,23596,62620.99
2828,23564,62643.14
2829,23568,62665.29
2830,23580,62687.44
2831,23604,62709.60
2832,23624,62731.75
2833,23656,62753.90
2834,23684,62776.05
2835,23700,62798.20
2836,23708,62820.35
2837,23708,62842.50
2838,23700,62864.65
2839,23692,62886.80
2840,23688,62908.95
2841,23692,62931.11
2842,23700,62953.26
2843,23716,62975.41
2844,23740,62997.56
2845,23756,63019.71
2846,23784,63041.86
2847,23804,63064.01
2848,23828,63086.16
2849,23852,63108.31
2850,23872,63130.46
2851,23888,63152.62
2852,23904,63174.77
2853,23924,63196.92
2854,23940,63219.07
2855,23956,63241.22
2856,23968,63263.37
2857,23980,63285.52
2858,23976,63307.67
2859,23944,63329.82
2860,23868,63351.98
2861,23772,63374.13
2862,23680,63396.28
2863,23612,63418.43
2864,23576,63440.58
2865,23568,63462.73
2866,23576,63484.88
2867,23600,63507.03
2868,23628,63529.18
2869,23656,63551.33
2870,23680,63573.49
2871,23704,63595.64
2872,23720,63617.79
2873,23724,63639.94
2874,23720,63662.09
2875,23712,63684.24
2876,23708,63706.39
2877,23708,63728.54
2878,23712,63750.69
2879,23724,63772.85
2880,23736,63795.00
2881,23760,63817.15
2882,23780,63839.30
2883,23804,63861.45
2884,23828,63883.60
2885,23856,63905.75
2886,23876,63927.90
2887,23896,63950.05
2888,23912,63972.20
2889,23928,63994.36
2890,23940,64016.51
2891,23956,64038.66
2892,23968,64060.81
2893,23972,64082.96
2894,23988,64105.11
2895,24000,64127.26
2896,24012,64149.41
2897,24012,64171.56
2898,23984,64193.71
2899,23928,64215.87
2900,23848,64238.02
2901,23760,64260.17
2902,23692,64282.32
2903,23648,64304.47
2904,23632,64326.62
2905,23636,64348.77
2906,23656,64370.92
2907,23684,64393.07
2908,23716,64415.23
2909,23752,64437.38
2910,23780,64459.53
2911,23788,64481.68
2912,23788,64503.83
2913,23776,64525.98
2914,23764,64548.13
2915,23752,64570.28
2916,23748,64592.43
2917,23752,64614.58
2918,23760,64636.74
2919,23776,64658.89
2920,23796,64681.04
2921,23816,64703.19
2922,23840,64725.34
2923,23864,64747.49
2924,23880,64769.64
2925,23896,64791.79
2926,23908,64813.94
2927,23916,64836.10
2928,23932,64858.25
2929,23936,64880.40
2930,23948,64902.55
2931,23956,64924.70
2932,23964,64946.85
2933,23972,64969.00
2934,23964,64991.15
2935,23924,65013.30
2936,23852,65035.45
2937,23764,65057.61
2938,23692,65079.76
2939,23640,65101.91
2940,23616,65124.06
2941,23612,65146.21
2942,23628,65168.36
2943,23648,65190.51
2944,23680,65212.66
2945,23712,65234.81
2946,23744,65256.96
2947,23764,65279.12
2948,23772,65301.27
2949,23772,65323.42
2950,23764,65345.57
2951,23752,65367.72
2952,23736,65389.87
2953,23736,65412.02
2954,23736,65434.17
2955,23752,65456.32
2956,23768,65478.48
2957,23788,65500.63
2958,23812,65522.78
2959,23832,65544.93
2960,23852,65567.08
2961,23872,65589.23
2962,23892,65611.38
2963,23908,65633.53
2964,23928,65655.68
2965,23940,65677.83
2966,23952,65699.99
2967,23968,65722.14
2968,23980,65744.29
2969,23992,65766.44
2970,24004,65788.59
2971,24012,65810.74
2972,24008,65832.89
2973,23968,65855.04
2974,23888,65877.19
2975,23788,65899.34
2976,23684,65921.50
2977,23608,65943.65
2978,23564,65965.80
2979,23548,65987.95
2980,23556,66010.10
2981,23568,66032.25
2982,23596,66054.40
2983,23620,66076.55
2984,23644,66098.70
2985,23664,66120.86
2986,23672,66143.01
2987,23676,66165.16
2988,23680,66187.31
2989,23668,66209.46
2990,23656,66231.61
2991,23652,66253.76
2992,23652,66275.91
2993,23656,66298.06
2994,23676,66320.21
2995,23696,66342.37
2996,23712,66364.52
2997,23740,66386.67
2998,23764,66408.82
2999,23788,66430.97
