Sample_Index,IR_Value,Timestamp_ms
0,21648,0.00
1,21788,19.98
2,21924,39.96
3,22068,59.93
4,22208,79.91
5,22332,99.89
6,22464,119.87
7,22592,139.85
8,22700,159.82
9,22788,179.80
10,22872,199.78
11,22936,219.76
12,22968,239.74
13,23008,259.71
14,23028,279.69
15,23056,299.67
16,23092,319.65
17,23136,339.63
18,23172,359.60
19,23204,379.58
20,23228,399.56
21,23244,419.54
22,23264,439.51
23,23288,459.49
24,23316,479.47
25,23336,499.45
26,23364,519.43
27,23384,539.40
28,23396,559.38
29,23404,579.36
30,23412,599.34
31,23428,619.32
32,23452,639.29
33,23476,659.27
34,23480,679.25
35,23484,699.23
36,23500,719.21
37,23512,739.18
38,23528,759.16
39,23556,779.14
40,23572,799.12
41,23580,819.10
42,23592,839.07
43,23612,859.05
44,23628,879.03
45,23656,899.01
46,23668,918.99
47,23680,938.96
48,23688,958.94
49,23700,978.92
50,23712,998.90
51,23732,1018.88
52,23740,1038.85
53,23752,1058.83
54,23768,1078.81
55,23776,1098.79
56,23780,1118.77
57,23788,1138.74
58,23804,1158.72
59,23820,1178.70
60,23836,1198.68
61,23836,1218.65
62,23832,1238.63
63,23828,1258.61
64,23824,1278.59
65,23820,1298.57
66,23824,1318.54
67,23828,1338.52
68,23832,1358.50
69,23840,1378.48
70,23844,1398.46
71,23848,1418.43
72,23856,1438.41
73,23860,1458.39
74,23868,1478.37
75,23876,1498.35
76,23880,1518.32
77,23884,1538.30
78,23884,1558.28
79,23892,1578.26
80,23896,1598.24
81,23896,1618.21
82,23904,1638.19
83,23908,1658.17
84,23916,1678.15
85,23912,1698.13
86,23916,1718.10
87,23916,1738.08
88,23920,1758.06
89,23920,1778.04
90,23924,1798.02
91,23924,1817.99
92,23928,1837.97
93,23928,1857.95
94,23928,1877.93
95,23932,1897.91
96,23936,1917.88
97,23940,1937.86
98,23944,1957.84
99,23944,1977.82
100,23948,1997.79
101,23956,2017.77
102,23960,2037.75
103,23964,2057.73
104,23968,2077.71
105,23976,2097.68
106,23980,2117.66
107,23992,2137.64
108,23992,2157.62
109,23996,2177.60
110,23984,2197.57
111,23972,2217.55
112,23960,2237.53
113,23948,2257.51
114,23944,2277.49
115,23940,2297.46
116,23940,2317.44
117,23940,2337.42
118,23944,2357.40
119,23936,2377.38
120,23940,2397.35
121,23936,2417.33
122,23940,2437.31
123,23940,2457.29
124,23944,2477.27
125,23944,2497.24
126,23940,2517.22
127,23940,2537.20
128,23940,2557.18
129,23944,2577.16
130,23944,2597.13
131,23944,2617.11
132,23944,2637.09
133,23940,2657.07
134,23936,2677.05
135,23940,2697.02
136,23940,2717.00
137,23936,2736.98
138,23936,2756.96
139,23932,2776.93
140,23932,2796.91
141,23932,2816.89
142,23928,2836.87
143,23924,2856.85
144,23924,2876.82
145,23932,2896.80
146,23932,2916.78
147,23932,2936.76
148,23936,2956.74
149,23936,2976.71
150,23936,2996.69
151,23940,3016.67
152,23940,3036.65
153,23948,3056.63
154,23940,3076.60
155,23940,3096.58
156,23924,3116.56
157,23904,3136.54
158,23892,3156.52
159,23880,3176.49
160,23864,3196.47
161,23860,3216.45
162,23852,3236.43
163,23848,3256.41
164,23844,3276.38
165,23844,3296.36
166,23844,3316.34
167,23840,3336.32
168,23836,3356.30
169,23836,3376.27
170,23832,3396.25
171,23828,3416.23
172,23824,3436.21
173,23824,3456.19
174,23816,3476.16
175,23812,3496.14
176,23812,3516.12
177,23812,3536.10
178,23808,3556.07
179,23808,3576.05
180,23808,3596.03
181,23808,3616.01
182,23808,3635.99
183,23808,3655.96
184,23808,3675.94
185,23812,3695.92
186,23816,3715.90
187,23824,3735.88
188,23828,3755.85
189,23832,3775.83
190,23836,3795.81
191,23844,3815.79
192,23844,3835.77
193,23848,3855.74
194,23856,3875.72
195,23852,3895.70
196,23844,3915.68
197,23832,3935.66
198,23812,3955.63
199,23800,3975.61
200,23780,3995.59
201,23768,4015.57
202,23764,4035.55
203,23760,4055.52
204,23760,4075.50
205,23756,4095.48
206,23756,4115.46
207,23756,4135.44
208,23760,4155.41
209,23760,4175.39
210,23764,4195.37
211,23760,4215.35
212,23756,4235.33
213,23756,4255.30
214,23752,4275.28
215,23752,4295.26
216,23752,4315.24
217,23748,4335.21
218,23756,4355.19
219,23756,4375.17
220,23764,4395.15
221,23768,4415.13
222,23768,4435.10
223,23768,4455.08
224,23772,4475.06
225,23776,4495.04
226,23776,4515.02
227,23776,4534.99
228,23780,4554.97
229,23780,4574.95
230,23784,4594.93
231,23784,4614.91
232,23784,4634.88
233,23788,4654.86
234,23776,4674.84
235,23756,4694.82
236,23728,4714.80
237,23696,4734.77
238,23668,4754.75
239,23644,4774.73
240,23624,4794.71
241,23612,4814.69
242,23604,4834.66
243,23592,4854.64
244,23588,4874.62
245,23580,4894.60
246,23576,4914.58
247,23576,4934.55
248,23572,4954.53
249,23576,4974.51
250,23572,4994.49
251,23568,5014.47
252,23564,5034.44
253,23560,5054.42
254,23560,5074.40
255,23560,5094.38
256,23564,5114.35
257,23568,5134.33
258,23572,5154.31
259,23568,5174.29
260,23576,5194.27
261,23580,5214.24
262,23592,5234.22
263,23596,5254.20
264,23604,5274.18
265,23604,5294.16
266,23612,5314.13
267,23616,5334.11
268,23624,5354.09
269,23632,5374.07
270,23636,5394.05
271,23640,5414.02
272,23640,5434.00
273,23648,5453.98
274,23656,5473.96
275,23660,5493.94
276,23668,5513.91
277,23676,5533.89
278,23672,5553.87
279,23648,5573.85
280,23616,5593.83
281,23580,5613.80
282,23536,5633.78
283,23500,5653.76
284,23476,5673.74
285,23456,5693.72
286,23440,5713.69
287,23432,5733.67
288,23420,5753.65
289,23408,5773.63
290,23400,5793.61
291,23400,5813.58
292,23396,5833.56
293,23396,5853.54
294,23400,5873.52
295,23396,5893.49
296,23396,5913.47
297,23392,5933.45
298,23396,5953.43
299,23400,5973.41
300,23400,5993.38
301,23404,6013.36
302,23408,6033.34
303,23416,6053.32
304,23428,6073.30
305,23436,6093.27
306,23440,6113.25
307,23452,6133.23
308,23460,6153.21
309,23472,6173.19
310,23480,6193.16
311,23488,6213.14
312,23500,6233.12
313,23508,6253.10
314,23516,6273.08
315,23524,6293.05
316,23532,6313.03
317,23540,6333.01
318,23552,6352.99
319,23556,6372.97
320,23568,6392.94
321,23572,6412.92
322,23580,6432.90
323,23564,6452.88
324,23544,6472.86
325,23504,6492.83
326,23464,6512.81
327,23420,6532.79
328,23396,6552.77
329,23372,6572.75
330,23360,6592.72
331,23348,6612.70
332,23344,6632.68
333,23336,6652.66
334,23328,6672.63
335,23328,6692.61
336,23328,6712.59
337,23332,6732.57
338,23332,6752.55
339,23336,6772.52
340,23332,6792.50
341,23336,6812.48
342,23340,6832.46
343,23336,6852.44
344,23348,6872.41
345,23356,6892.39
346,23360,6912.37
347,23372,6932.35
348,23384,6952.33
349,23392,6972.30
350,23404,6992.28
351,23412,7012.26
352,23420,7032.24
353,23428,7052.22
354,23440,7072.19
355,23452,7092.17
356,23464,7112.15
357,23472,7132.13
358,23480,7152.11
359,23488,7172.08
360,23496,7192.06
361,23508,7212.04
362,23520,7232.02
363,23516,7252.00
364,23508,7271.97
365,23480,7291.95
366,23444,7311.93
367,23408,7331.91
368,23372,7351.88
369,23344,7371.86
370,23328,7391.84
371,23320,7411.82
372,23312,7431.80
373,23304,7451.77
374,23300,7471.75
375,23300,7491.73
376,23304,7511.71
377,23304,7531.69
378,23308,7551.66
379,23308,7571.64
380,23312,7591.62
381,23312,7611.60
382,23312,7631.58
383,23312,7651.55
384,23312,7671.53
385,23316,7691.51
386,23324,7711.49
387,23328,7731.47
388,23340,7751.44
389,23352,7771.42
390,23364,7791.40
391,23376,7811.38
392,23388,7831.36
393,23400,7851.33
394,23408,7871.31
395,23416,7891.29
396,23424,7911.27
397,23436,7931.25
398,23444,7951.22
399,23456,7971.20
400,23464,7991.18
401,23468,8011.16
402,23452,8031.14
403,23420,8051.11
404,23384,8071.09
405,23340,8091.07
406,23304,8111.05
407,23280,8131.02
408,23260,8151.00
409,23252,8170.98
410,23244,8190.96
411,23236,8210.94
412,23236,8230.91
413,23232,8250.89
414,23236,8270.87
415,23240,8290.85
416,23248,8310.83
417,23244,8330.80
418,23240,8350.78
419,23240,8370.76
420,23240,8390.74
421,23244,8410.72
422,23244,8430.69
423,23248,8450.67
424,23260,8470.65
425,23268,8490.63
426,23280,8510.61
427,23292,8530.58
428,23304,8550.56
429,23316,8570.54
430,23328,8590.52
431,23336,8610.50
432,23352,8630.47
433,23360,8650.45
434,23372,8670.43
435,23384,8690.41
436,23400,8710.39
437,23408,8730.36
438,23420,8750.34
439,23432,8770.32
440,23440,8790.30
441,23444,8810.28
442,23424,8830.25
443,23392,8850.23
444,23344,8870.21
445,23292,8890.19
446,23240,8910.16
447,23200,8930.14
448,23176,8950.12
449,23148,8970.10
450,23132,8990.08
451,23112,9010.05
452,23092,9030.03
453,23076,9050.01
454,23064,9069.99
455,23060,9089.97
456,23056,9109.94
457,23056,9129.92
458,23056,9149.90
459,23056,9169.88
460,23056,9189.86
461,23052,9209.83
462,23060,9229.81
463,23060,9249.79
464,23060,9269.77
465,23064,9289.75
466,23076,9309.72
467,23084,9329.70
468,23096,9349.68
469,23108,9369.66
470,23120,9389.64
471,23136,9409.61
472,23144,9429.59
473,23160,9449.57
474,23172,9469.55
475,23188,9489.53
476,23196,9509.50
477,23208,9529.48
478,23224,9549.46
479,23236,9569.44
480,23248,9589.42
481,23264,9609.39
482,23280,9629.37
483,23296,9649.35
484,23308,9669.33
485,23300,9689.30
486,23268,9709.28
487,23224,9729.26
488,23168,9749.24
489,23116,9769.22
490,23072,9789.19
491,23044,9809.17
492,23016,9829.15
493,23000,9849.13
494,22980,9869.11
495,22968,9889.08
496,22952,9909.06
497,22944,9929.04
498,22940,9949.02
499,22940,9969.00
500,22932,9988.97
501,22928,10008.95
502,22924,10028.93
503,22916,10048.91
504,22908,10068.89
505,22900,10088.86
506,22896,10108.84
507,22896,10128.82
508,22900,10148.80
509,22904,10168.78
510,22908,10188.75
511,22920,10208.73
512,22920,10228.71
513,22932,10248.69
514,22940,10268.67
515,22948,10288.64
516,22956,10308.62
517,22964,10328.60
518,22972,10348.58
519,22976,10368.56
520,22988,10388.53
521,22992,10408.51
522,23004,10428.49
523,23016,10448.47
524,23024,10468.44
525,23032,10488.42
526,23048,10508.40
527,23056,10528.38
528,23076,10548.36
529,23092,10568.33
530,23100,10588.31
531,23096,10608.29
532,23064,10628.27
533,23020,10648.25
534,22960,10668.22
535,22904,10688.20
536,22864,10708.18
537,22828,10728.16
538,22804,10748.14
539,22796,10768.11
540,22788,10788.09
541,22788,10808.07
542,22788,10828.05
543,22784,10848.03
544,22792,10868.00
545,22796,10887.98
546,22796,10907.96
547,22792,10927.94
548,22788,10947.92
549,22780,10967.89
550,22776,10987.87
551,22776,11007.85
552,22780,11027.83
553,22788,11047.81
554,22796,11067.78
555,22804,11087.76
556,22820,11107.74
557,22828,11127.72
558,22840,11147.70
559,22856,11167.67
560,22868,11187.65
561,22880,11207.63
562,22892,11227.61
563,22908,11247.58
564,22916,11267.56
565,22928,11287.54
566,22940,11307.52
567,22956,11327.50
568,22968,11347.47
569,22980,11367.45
570,22996,11387.43
571,23012,11407.41
572,23032,11427.39
573,23044,11447.36
574,23060,11467.34
575,23064,11487.32
576,23040,11507.30
577,22996,11527.28
578,22944,11547.25
579,22880,11567.23
580,22828,11587.21
581,22788,11607.19
582,22768,11627.17
583,22748,11647.14
584,22740,11667.12
585,22732,11687.10
586,22728,11707.08
587,22724,11727.06
588,22732,11747.03
589,22732,11767.01
590,22740,11786.99
591,22744,11806.97
592,22748,11826.95
593,22744,11846.92
594,22744,11866.90
595,22744,11886.88
596,22744,11906.86
597,22752,11926.84
598,22764,11946.81
599,22772,11966.79
600,22788,11986.77
601,22804,12006.75
602,22824,12026.72
603,22836,12046.70
604,22852,12066.68
605,22868,12086.66
606,22884,12106.64
607,22900,12126.61
608,22916,12146.59
609,22928,12166.57
610,22944,12186.55
611,22964,12206.53
612,22980,12226.50
613,22996,12246.48
614,23012,12266.46
615,23028,12286.44
616,23040,12306.42
617,23060,12326.39
618,23076,12346.37
619,23092,12366.35
620,23108,12386.33
621,23096,12406.31
622,23068,12426.28
623,23012,12446.26
624,22944,12466.24
625,22876,12486.22
626,22820,12506.20
627,22776,12526.17
628,22748,12546.15
629,22724,12566.13
630,22708,12586.11
631,22692,12606.09
632,22680,12626.06
633,22676,12646.04
634,22672,12666.02
635,22672,12686.00
636,22676,12705.98
637,22676,12725.95
638,22676,12745.93
639,22672,12765.91
640,22672,12785.89
641,22668,12805.86
642,22668,12825.84
643,22668,12845.82
644,22676,12865.80
645,22684,12885.78
646,22692,12905.75
647,22712,12925.73
648,22720,12945.71
649,22736,12965.69
650,22748,12985.67
651,22764,13005.64
652,22780,13025.62
653,22792,13045.60
654,22812,13065.58
655,22828,13085.56
656,22844,13105.53
657,22860,13125.51
658,22880,13145.49
659,22896,13165.47
660,22912,13185.45
661,22932,13205.42
662,22948,13225.40
663,22968,13245.38
664,22984,13265.36
665,23000,13285.34
666,23016,13305.31
667,23032,13325.29
668,23020,13345.27
669,22992,13365.25
670,22936,13385.23
671,22868,13405.20
672,22800,13425.18
673,22744,13445.16
674,22708,13465.14
675,22680,13485.12
676,22668,13505.09
677,22652,13525.07
678,22648,13545.05
679,22636,13565.03
680,22640,13585.00
681,22644,13604.98
682,22652,13624.96
683,22656,13644.94
684,22660,13664.92
685,22660,13684.89
686,22660,13704.87
687,22660,13724.85
688,22660,13744.83
689,22660,13764.81
690,22664,13784.78
691,22672,13804.76
692,22680,13824.74
693,22696,13844.72
694,22712,13864.70
695,22724,13884.67
696,22740,13904.65
697,22756,13924.63
698,22772,13944.61
699,22784,13964.59
700,22800,13984.56
701,22812,14004.54
702,22828,14024.52
703,22844,14044.50
704,22856,14064.48
705,22876,14084.45
706,22892,14104.43
707,22904,14124.41
708,22920,14144.39
709,22936,14164.37
710,22948,14184.34
711,22944,14204.32
712,22908,14224.30
713,22864,14244.28
714,22796,14264.26
715,22736,14284.23
716,22692,14304.21
717,22656,14324.19
718,22636,14344.17
719,22632,14364.14
720,22628,14384.12
721,22632,14404.10
722,22636,14424.08
723,22640,14444.06
724,22648,14464.03
725,22656,14484.01
726,22660,14503.99
727,22664,14523.97
728,22660,14543.95
729,22656,14563.92
730,22656,14583.90
731,22656,14603.88
732,22660,14623.86
733,22668,14643.84
734,22676,14663.81
735,22684,14683.79
736,22696,14703.77
737,22708,14723.75
738,22716,14743.73
739,22728,14763.70
740,22736,14783.68
741,22748,14803.66
742,22752,14823.64
743,22760,14843.62
744,22764,14863.59
745,22772,14883.57
746,22780,14903.55
747,22788,14923.53
748,22796,14943.51
749,22800,14963.48
750,22784,14983.46
751,22744,15003.44
752,22684,15023.42
753,22612,15043.40
754,22552,15063.37
755,22516,15083.35
756,22488,15103.33
757,22476,15123.31
758,22472,15143.28
759,22468,15163.26
760,22468,15183.24
761,22468,15203.22
762,22480,15223.20
763,22492,15243.17
764,22500,15263.15
765,22508,15283.13
766,22516,15303.11
767,22520,15323.09
768,22524,15343.06
769,22524,15363.04
770,22528,15383.02
771,22536,15403.00
772,22552,15422.98
773,22568,15442.95
774,22580,15462.93
775,22596,15482.91
776,22616,15502.89
777,22636,15522.87
778,22652,15542.84
779,22664,15562.82
780,22684,15582.80
781,22696,15602.78
782,22712,15622.76
783,22728,15642.73
784,22740,15662.71
785,22752,15682.69
786,22764,15702.67
787,22780,15722.65
788,22800,15742.62
789,22812,15762.60
790,22808,15782.58
791,22780,15802.56
792,22712,15822.54
793,22632,15842.51
794,22552,15862.49
795,22488,15882.47
796,22440,15902.45
797,22408,15922.42
798,22392,15942.40
799,22376,15962.38
800,22372,15982.36
801,22364,16002.34
802,22360,16022.31
803,22364,16042.29
804,22376,16062.27
805,22388,16082.25
806,22396,16102.23
807,22408,16122.20
808,22420,16142.18
809,22424,16162.16
810,22428,16182.14
811,22436,16202.12
812,22444,16222.09
813,22460,16242.07
814,22472,16262.05
815,22492,16282.03
816,22512,16302.01
817,22528,16321.98
818,22552,16341.96
819,22568,16361.94
820,22592,16381.92
821,22612,16401.90
822,22628,16421.87
823,22644,16441.85
824,22664,16461.83
825,22676,16481.81
826,22692,16501.79
827,22708,16521.76
828,22720,16541.74
829,22740,16561.72
830,22752,16581.70
831,22768,16601.68
832,22784,16621.65
833,22800,16641.63
834,22816,16661.61
835,22836,16681.59
836,22852,16701.56
837,22852,16721.54
838,22820,16741.52
839,22752,16761.50
840,22668,16781.48
841,22584,16801.45
842,22504,16821.43
843,22452,16841.41
844,22424,16861.39
845,22404,16881.37
846,22400,16901.34
847,22388,16921.32
848,22380,16941.30
849,22380,16961.28
850,22380,16981.26
851,22392,17001.23
852,22400,17021.21
853,22412,17041.19
854,22416,17061.17
855,22420,17081.15
856,22420,17101.12
857,22432,17121.10
858,22432,17141.08
859,22440,17161.06
860,22456,17181.04
861,22468,17201.01
862,22484,17220.99
863,22500,17240.97
864,22524,17260.95
865,22540,17280.93
866,22560,17300.90
867,22576,17320.88
868,22592,17340.86
869,22608,17360.84
870,22628,17380.82
871,22640,17400.79
872,22652,17420.77
873,22664,17440.75
874,22680,17460.73
875,22692,17480.70
876,22700,17500.68
877,22712,17520.66
878,22728,17540.64
879,22740,17560.62
880,22752,17580.59
881,22764,17600.57
882,22780,17620.55
883,22788,17640.53
884,22788,17660.51
885,22752,17680.48
886,22692,17700.46
887,22612,17720.44
888,22528,17740.42
889,22460,17760.40
890,22416,17780.37
891,22384,17800.35
892,22372,17820.33
893,22364,17840.31
894,22360,17860.29
895,22360,17880.26
896,22360,17900.24
897,22368,17920.22
898,22368,17940.20
899,22372,17960.18
900,22368,17980.15
901,22368,18000.13
902,22364,18020.11
903,22360,18040.09
904,22356,18060.07
905,22348,18080.04
906,22352,18100.02
907,22356,18120.00
908,22364,18139.98
909,22372,18159.96
910,22384,18179.93
911,22396,18199.91
912,22408,18219.89
913,22420,18239.87
914,22436,18259.84
915,22448,18279.82
916,22464,18299.80
917,22472,18319.78
918,22484,18339.76
919,22492,18359.73
920,22500,18379.71
921,22508,18399.69
922,22516,18419.67
923,22532,18439.65
924,22544,18459.62
925,22552,18479.60
926,22560,18499.58
927,22540,18519.56
928,22492,18539.54
929,22428,18559.51
930,22356,18579.49
931,22292,18599.47
932,22252,18619.45
933,22228,18639.43
934,22220,18659.40
935,22216,18679.38
936,22220,18699.36
937,22224,18719.34
938,22236,18739.32
939,22252,18759.29
940,22264,18779.27
941,22272,18799.25
942,22276,18819.23
943,22272,18839.21
944,22272,18859.18
945,22268,18879.16
946,22272,18899.14
947,22276,18919.12
948,22288,18939.10
949,22300,18959.07
950,22316,18979.05
951,22336,18999.03
952,22356,19019.01
953,22376,19038.98
954,22396,19058.96
955,22416,19078.94
956,22432,19098.92
957,22452,19118.90
958,22464,19138.87
959,22480,19158.85
960,22496,19178.83
961,22516,19198.81
962,22532,19218.79
963,22548,19238.76
964,22564,19258.74
965,22576,19278.72
966,22592,19298.70
967,22608,19318.68
968,22612,19338.65
969,22600,19358.63
970,22548,19378.61
971,22472,19398.59
972,22384,19418.57
973,22312,19438.54
974,22248,19458.52
975,22216,19478.50
976,22192,19498.48
977,22184,19518.46
978,22180,19538.43
979,22172,19558.41
980,22172,19578.39
981,22172,19598.37
982,22184,19618.35
983,22192,19638.32
984,22200,19658.30
985,22212,19678.28
986,22220,19698.26
987,22224,19718.24
988,22232,19738.21
989,22240,19758.19
990,22244,19778.17
991,22260,19798.15
992,22268,19818.12
993,22288,19838.10
994,22304,19858.08
995,22320,19878.06
996,22340,19898.04
997,22356,19918.01
998,22380,19937.99
999,22400,19957.97
1000,22420,19977.95
1001,22440,19997.93
1002,22456,20017.90
1003,22472,20037.88
1004,22492,20057.86
1005,22512,20077.84
1006,22524,20097.82
1007,22544,20117.79
1008,22560,20137.77
1009,22576,20157.75
1010,22592,20177.73
1011,22612,20197.71
1012,22624,20217.68
1013,22604,20237.66
1014,22556,20257.64
1015,22476,20277.62
1016,22388,20297.60
1017,22312,20317.57
1018,22252,20337.55
1019,22216,20357.53
1020,22192,20377.51
1021,22184,20397.49
1022,22180,20417.46
1023,22172,20437.44
1024,22172,20457.42
1025,22172,20477.40
1026,22184,20497.37
1027,22196,20517.35
1028,22204,20537.33
1029,22216,20557.31
1030,22224,20577.29
1031,22232,20597.26
1032,22232,20617.24
1033,22236,20637.22
1034,22244,20657.20
1035,22256,20677.18
1036,22268,20697.15
1037,22284,20717.13
1038,22304,20737.11
1039,22324,20757.09
1040,22344,20777.07
1041,22364,20797.04
1042,22388,20817.02
1043,22408,20837.00
1044,22436,20856.98
1045,22456,20876.96
1046,22476,20896.93
1047,22492,20916.91
1048,22512,20936.89
1049,22532,20956.87
1050,22548,20976.85
1051,22568,20996.82
1052,22588,21016.80
1053,22604,21036.78
1054,22624,21056.76
1055,22644,21076.74
1056,22656,21096.71
1057,22672,21116.69
1058,22688,21136.67
1059,22704,21156.65
1060,22700,21176.63
1061,22656,21196.60
1062,22588,21216.58
1063,22496,21236.56
1064,22416,21256.54
1065,22348,21276.51
1066,22304,21296.49
1067,22276,21316.47
1068,22264,21336.45
1069,22260,21356.43
1070,22256,21376.40
1071,22256,21396.38
1072,22260,21416.36
1073,22268,21436.34
1074,22276,21456.32
1075,22284,21476.29
1076,22292,21496.27
1077,22296,21516.25
1078,22300,21536.23
1079,22296,21556.21
1080,22296,21576.18
1081,22300,21596.16
1082,22308,21616.14
1083,22320,21636.12
1084,22332,21656.10
1085,22348,21676.07
1086,22364,21696.05
1087,22380,21716.03
1088,22400,21736.01
1089,22416,21755.99
1090,22436,21775.96
1091,22452,21795.94
1092,22468,21815.92
1093,22484,21835.90
1094,22500,21855.88
1095,22520,21875.85
1096,22536,21895.83
1097,22548,21915.81
1098,22564,21935.79
1099,22584,21955.77
1100,22596,21975.74
1101,22612,21995.72
1102,22616,22015.70
1103,22588,22035.68
1104,22536,22055.65
1105,22460,22075.63
1106,22384,22095.61
1107,22320,22115.59
1108,22280,22135.57
1109,22260,22155.54
1110,22248,22175.52
1111,22252,22195.50
1112,22260,22215.48
1113,22272,22235.46
1114,22284,22255.43
1115,22296,22275.41
1116,22308,22295.39
1117,22316,22315.37
1118,22324,22335.35
1119,22320,22355.32
1120,22320,22375.30
1121,22316,22395.28
1122,22316,22415.26
1123,22320,22435.24
1124,22324,22455.21
1125,22336,22475.19
1126,22348,22495.17
1127,22364,22515.15
1128,22384,22535.13
1129,22400,22555.10
1130,22420,22575.08
1131,22436,22595.06
1132,22452,22615.04
1133,22468,22635.02
1134,22480,22654.99
1135,22496,22674.97
1136,22512,22694.95
1137,22524,22714.93
1138,22540,22734.91
1139,22556,22754.88
1140,22568,22774.86
1141,22560,22794.84
1142,22524,22814.82
1143,22452,22834.79
1144,22368,22854.77
1145,22288,22874.75
1146,22220,22894.73
1147,22180,22914.71
1148,22160,22934.68
1149,22152,22954.66
1150,22152,22974.64
1151,22152,22994.62
1152,22152,23014.60
1153,22160,23034.57
1154,22172,23054.55
1155,22184,23074.53
1156,22196,23094.51
1157,22204,23114.49
1158,22212,23134.46
1159,22216,23154.44
1160,22224,23174.42
1161,22228,23194.40
1162,22236,23214.38
1163,22244,23234.35
1164,22256,23254.33
1165,22272,23274.31
1166,22292,23294.29
1167,22308,23314.27
1168,22328,23334.24
1169,22344,23354.22
1170,22360,23374.20
1171,22376,23394.18
1172,22388,23414.16
1173,22404,23434.13
1174,22424,23454.11
1175,22436,23474.09
1176,22452,23494.07
1177,22464,23514.05
1178,22476,23534.02
1179,22492,23554.00
1180,22496,23573.98
1181,22508,23593.96
1182,22476,23613.93
1183,22416,23633.91
1184,22328,23653.89
1185,22236,23673.87
1186,22156,23693.85
1187,22104,23713.82
1188,22072,23733.80
1189,22052,23753.78
1190,22044,23773.76
1191,22036,23793.74
1192,22028,23813.71
1193,22024,23833.69
1194,22028,23853.67
1195,22036,23873.65
1196,22048,23893.63
1197,22064,23913.60
1198,22072,23933.58
1199,22080,23953.56
1200,22088,23973.54
1201,22088,23993.52
1202,22088,24013.49
1203,22096,24033.47
1204,22108,24053.45
1205,22120,24073.43
1206,22136,24093.41
1207,22152,24113.38
1208,22172,24133.36
1209,22192,24153.34
1210,22212,24173.32
1211,22228,24193.30
1212,22244,24213.27
1213,22260,24233.25
1214,22280,24253.23
1215,22296,24273.21
1216,22308,24293.19
1217,22320,24313.16
1218,22336,24333.14
1219,22348,24353.12
1220,22364,24373.10
1221,22380,24393.07
1222,22396,24413.05
1223,22392,24433.03
1224,22344,24453.01
1225,22272,24472.99
1226,22176,24492.96
1227,22096,24512.94
1228,22028,24532.92
1229,21988,24552.90
1230,21968,24572.88
1231,21956,24592.85
1232,21948,24612.83
1233,21948,24632.81
1234,21944,24652.79
1235,21948,24672.77
1236,21956,24692.74
1237,21972,24712.72
1238,21984,24732.70
1239,21992,24752.68
1240,22000,24772.66
1241,22000,24792.63
1242,22004,24812.61
1243,22012,24832.59
1244,22012,24852.57
1245,22024,24872.55
1246,22040,24892.52
1247,22056,24912.50
1248,22076,24932.48
1249,22088,24952.46
1250,22108,24972.44
1251,22124,24992.41
1252,22148,25012.39
1253,22164,25032.37
1254,22176,25052.35
1255,22188,25072.33
1256,22208,25092.30
1257,22220,25112.28
1258,22240,25132.26
1259,22252,25152.24
1260,22264,25172.21
1261,22276,25192.19
1262,22288,25212.17
1263,22304,25232.15
1264,22308,25252.13
1265,22288,25272.10
1266,22236,25292.08
1267,22156,25312.06
1268,22072,25332.04
1269,22008,25352.02
1270,21960,25371.99
1271,21932,25391.97
1272,21920,25411.95
1273,21920,25431.93
1274,21920,25451.91
1275,21924,25471.88
1276,21936,25491.86
1277,21952,25511.84
1278,21964,25531.82
1279,21972,25551.80
1280,21980,25571.77
1281,21984,25591.75
1282,21980,25611.73
1283,21980,25631.71
1284,21980,25651.69
1285,21988,25671.66
1286,21992,25691.64
1287,22004,25711.62
1288,22020,25731.60
1289,22036,25751.58
1290,22052,25771.55
1291,22072,25791.53
1292,22092,25811.51
1293,22108,25831.49
1294,22124,25851.47
1295,22140,25871.44
1296,22148,25891.42
1297,22164,25911.40
1298,22176,25931.38
1299,22188,25951.35
1300,22200,25971.33
1301,22216,25991.31
1302,22232,26011.29
1303,22236,26031.27
1304,22212,26051.24
1305,22156,26071.22
1306,22072,26091.20
1307,21992,26111.18
1308,21924,26131.16
1309,21884,26151.13
1310,21856,26171.11
1311,21848,26191.09
1312,21844,26211.07
1313,21840,26231.05
1314,21844,26251.02
1315,21852,26271.00
1316,21864,26290.98
1317,21876,26310.96
1318,21880,26330.94
1319,21888,26350.91
1320,21892,26370.89
1321,21896,26390.87
1322,21900,26410.85
1323,21904,26430.83
1324,21912,26450.80
1325,21924,26470.78
1326,21936,26490.76
1327,21956,26510.74
1328,21968,26530.72
1329,21992,26550.69
1330,22008,26570.67
1331,22028,26590.65
1332,22044,26610.63
1333,22064,26630.61
1334,22080,26650.58
1335,22096,26670.56
1336,22116,26690.54
1337,22128,26710.52
1338,22144,26730.49
1339,22156,26750.47
1340,22172,26770.45
1341,22184,26790.43
1342,22192,26810.41
1343,22176,26830.38
1344,22120,26850.36
1345,22040,26870.34
1346,21948,26890.32
1347,21868,26910.30
1348,21816,26930.27
1349,21784,26950.25
1350,21764,26970.23
1351,21752,26990.21
1352,21744,27010.19
1353,21736,27030.16
1354,21732,27050.14
1355,21736,27070.12
1356,21744,27090.10
1357,21756,27110.08
1358,21772,27130.05
1359,21776,27150.03
1360,21784,27170.01
1361,21796,27189.99
1362,21796,27209.97
1363,21804,27229.94
1364,21808,27249.92
1365,21820,27269.90
1366,21828,27289.88
1367,21844,27309.86
1368,21860,27329.83
1369,21880,27349.81
1370,21900,27369.79
1371,21920,27389.77
1372,21940,27409.75
1373,21956,27429.72
1374,21976,27449.70
1375,21996,27469.68
1376,22016,27489.66
1377,22032,27509.63
1378,22052,27529.61
1379,22068,27549.59
1380,22080,27569.57
1381,22096,27589.55
1382,22112,27609.52
1383,22128,27629.50
1384,22148,27649.48
1385,22160,27669.46
1386,22148,27689.44
1387,22096,27709.41
1388,22008,27729.39
1389,21912,27749.37
1390,21828,27769.35
1391,21764,27789.33
1392,21728,27809.30
1393,21704,27829.28
1394,21696,27849.26
1395,21688,27869.24
1396,21684,27889.22
1397,21680,27909.19
1398,21684,27929.17
1399,21696,27949.15
1400,21712,27969.13
1401,21728,27989.11
1402,21740,28009.08
1403,21748,28029.06
1404,21748,28049.04
1405,21752,28069.02
1406,21756,28089.00
1407,21764,28108.97
1408,21776,28128.95
1409,21788,28148.93
1410,21804,28168.91
1411,21824,28188.89
1412,21844,28208.86
1413,21864,28228.84
1414,21884,28248.82
1415,21900,28268.80
1416,21916,28288.77
1417,21936,28308.75
1418,21956,28328.73
1419,21976,28348.71
1420,21992,28368.69
1421,22008,28388.66
1422,22024,28408.64
1423,22040,28428.62
1424,22056,28448.60
1425,22068,28468.58
1426,22088,28488.55
1427,22104,28508.53
1428,22120,28528.51
1429,22140,28548.49
1430,22160,28568.47
1431,22176,28588.44
1432,22196,28608.42
1433,22216,28628.40
1434,22236,28648.38
1435,22240,28668.36
1436,22216,28688.33
1437,22140,28708.31
1438,22040,28728.29
1439,21944,28748.27
1440,21860,28768.25
1441,21800,28788.22
1442,21768,28808.20
1443,21756,28828.18
1444,21748,28848.16
1445,21744,28868.14
1446,21744,28888.11
1447,21748,28908.09
1448,21752,28928.07
1449,21760,28948.05
1450,21772,28968.03
1451,21784,28988.00
1452,21788,29007.98
1453,21792,29027.96
1454,21792,29047.94
1455,21792,29067.91
1456,21796,29087.89
1457,21800,29107.87
1458,21812,29127.85
1459,21824,29147.83
1460,21840,29167.80
1461,21860,29187.78
1462,21876,29207.76
1463,21900,29227.74
1464,21920,29247.72
1465,21936,29267.69
1466,21956,29287.67
1467,21976,29307.65
1468,21992,29327.63
1469,22008,29347.61
1470,22024,29367.58
1471,22036,29387.56
1472,22052,29407.54
1473,22068,29427.52
1474,22084,29447.50
1475,22096,29467.47
1476,22108,29487.45
1477,22128,29507.43
1478,22144,29527.41
1479,22156,29547.39
1480,22144,29567.36
1481,22092,29587.34
1482,22016,29607.32
1483,21928,29627.30
1484,21848,29647.28
1485,21796,29667.25
1486,21764,29687.23
1487,21752,29707.21
1488,21748,29727.19
1489,21756,29747.17
1490,21764,29767.14
1491,21780,29787.12
1492,21796,29807.10
1493,21812,29827.08
1494,21824,29847.05
1495,21832,29867.03
1496,21828,29887.01
1497,21828,29906.99
1498,21824,29926.97
1499,21820,29946.94
1500,21824,29966.92
1501,21832,29986.90
1502,21844,30006.88
1503,21856,30026.86
1504,21872,30046.83
1505,21888,30066.81
1506,21908,30086.79
1507,21928,30106.77
1508,21944,30126.75
1509,21964,30146.72
1510,21980,30166.70
1511,21996,30186.68
1512,22008,30206.66
1513,22020,30226.64
1514,22032,30246.61
1515,22048,30266.59
1516,22060,30286.57
1517,22076,30306.55
1518,22088,30326.53
1519,22080,30346.50
1520,22040,30366.48
1521,21964,30386.46
1522,21876,30406.44
1523,21796,30426.42
1524,21736,30446.39
1525,21700,30466.37
1526,21680,30486.35
1527,21680,30506.33
1528,21680,30526.31
1529,21688,30546.28
1530,21696,30566.26
1531,21708,30586.24
1532,21720,30606.22
1533,21740,30626.19
1534,21752,30646.17
1535,21764,30666.15
1536,21772,30686.13
1537,21772,30706.11
1538,21772,30726.08
1539,21780,30746.06
1540,21784,30766.04
1541,21792,30786.02
1542,21804,30806.00
1543,21824,30825.97
1544,21840,30845.95
1545,21860,30865.93
1546,21880,30885.91
1547,21904,30905.89
1548,21924,30925.86
1549,21944,30945.84
1550,21964,30965.82
1551,21976,30985.80
1552,21996,31005.78
1553,22012,31025.75
1554,22024,31045.73
1555,22040,31065.71
1556,22060,31085.69
1557,22076,31105.67
1558,22080,31125.64
1559,22040,31145.62
1560,21964,31165.60
1561,21868,31185.58
1562,21776,31205.56
1563,21700,31225.53
1564,21656,31245.51
1565,21628,31265.49
1566,21616,31285.47
1567,21608,31305.45
1568,21612,31325.42
1569,21608,31345.40
1570,21608,31365.38
1571,21620,31385.36
1572,21636,31405.33
1573,21652,31425.31
1574,21668,31445.29
1575,21680,31465.27
1576,21684,31485.25
1577,21692,31505.22
1578,21696,31525.20
1579,21708,31545.18
1580,21716,31565.16
1581,21732,31585.14
1582,21748,31605.11
1583,21768,31625.09
1584,21784,31645.07
1585,21804,31665.05
1586,21824,31685.03
1587,21844,31705.00
1588,21860,31724.98
1589,21876,31744.96
1590,21896,31764.94
1591,21912,31784.92
1592,21928,31804.89
1593,21944,31824.87
1594,21964,31844.85
1595,21976,31864.83
1596,21984,31884.81
1597,21964,31904.78
1598,21908,31924.76
1599,21824,31944.74
1600,21728,31964.72
1601,21652,31984.70
1602,21604,32004.67
1603,21576,32024.65
1604,21564,32044.63
1605,21560,32064.61
1606,21560,32084.59
1607,21560,32104.56
1608,21568,32124.54
1609,21580,32144.52
1610,21600,32164.50
1611,21616,32184.47
1612,21632,32204.45
1613,21648,32224.43
1614,21660,32244.41
1615,21668,32264.39
1616,21672,32284.36
1617,21680,32304.34
1618,21692,32324.32
1619,21708,32344.30
1620,21724,32364.28
1621,21740,32384.25
1622,21760,32404.23
1623,21780,32424.21
1624,21804,32444.19
1625,21828,32464.17
1626,21852,32484.14
1627,21872,32504.12
1628,21896,32524.10
1629,21912,32544.08
1630,21928,32564.06
1631,21948,32584.03
1632,21960,32604.01
1633,21976,32623.99
1634,21996,32643.97
1635,22008,32663.95
1636,22012,32683.92
1637,21980,32703.90
1638,21924,32723.88
1639,21848,32743.86
1640,21768,32763.84
1641,21708,32783.81
1642,21672,32803.79
1643,21652,32823.77
1644,21648,32843.75
1645,21648,32863.73
1646,21652,32883.70
1647,21660,32903.68
1648,21676,32923.66
1649,21696,32943.64
1650,21712,32963.61
1651,21728,32983.59
1652,21740,33003.57
1653,21748,33023.55
1654,21752,33043.53
1655,21756,33063.50
1656,21764,33083.48
1657,21772,33103.46
1658,21780,33123.44
1659,21800,33143.42
1660,21820,33163.39
1661,21840,33183.37
1662,21860,33203.35
1663,21880,33223.33
1664,21900,33243.31
1665,21920,33263.28
1666,21940,33283.26
1667,21956,33303.24
1668,21972,33323.22
1669,21988,33343.20
1670,22004,33363.17
1671,22020,33383.15
1672,22040,33403.13
1673,22056,33423.11
1674,22060,33443.09
1675,22028,33463.06
1676,21968,33483.04
1677,21900,33503.02
1678,21828,33523.00
1679,21776,33542.98
1680,21740,33562.95
1681,21728,33582.93
1682,21716,33602.91
1683,21720,33622.89
1684,21728,33642.87
1685,21736,33662.84
1686,21748,33682.82
1687,21760,33702.80
1688,21776,33722.78
1689,21788,33742.75
1690,21792,33762.73
1691,21792,33782.71
1692,21788,33802.69
1693,21792,33822.67
1694,21796,33842.64
1695,21804,33862.62
1696,21816,33882.60
1697,21832,33902.58
1698,21848,33922.56
1699,21864,33942.53
1700,21884,33962.51
1701,21900,33982.49
1702,21924,34002.47
1703,21940,34022.45
1704,21956,34042.42
1705,21968,34062.40
1706,21988,34082.38
1707,22000,34102.36
1708,22012,34122.34
1709,22024,34142.31
1710,22036,34162.29
1711,22024,34182.27
1712,21984,34202.25
1713,21916,34222.23
1714,21836,34242.20
1715,21764,34262.18
1716,21712,34282.16
1717,21680,34302.14
1718,21668,34322.12
1719,21664,34342.09
1720,21664,34362.07
1721,21668,34382.05
1722,21676,34402.03
1723,21688,34422.00
1724,21700,34441.98
1725,21716,34461.96
1726,21728,34481.94
1727,21736,34501.92
1728,21740,34521.89
1729,21744,34541.87
1730,21748,34561.85
1731,21756,34581.83
1732,21764,34601.81
1733,21780,34621.78
1734,21796,34641.76
1735,21816,34661.74
1736,21836,34681.72
1737,21856,34701.70
1738,21872,34721.67
1739,21896,34741.65
1740,21916,34761.63
1741,21936,34781.61
1742,21960,34801.59
1743,21984,34821.56
1744,22000,34841.54
1745,22024,34861.52
1746,22044,34881.50
1747,22068,34901.48
1748,22084,34921.45
1749,22084,34941.43
1750,22056,34961.41
1751,22004,34981.39
1752,21940,35001.37
1753,21876,35021.34
1754,21828,35041.32
1755,21804,35061.30
1756,21784,35081.28
1757,21780,35101.26
1758,21776,35121.23
1759,21780,35141.21
1760,21780,35161.19
1761,21780,35181.17
1762,21796,35201.14
1763,21812,35221.12
1764,21832,35241.10
1765,21852,35261.08
1766,21864,35281.06
1767,21876,35301.03
1768,21888,35321.01
1769,21900,35340.99
1770,21916,35360.97
1771,21928,35380.95
1772,21944,35400.92
1773,21964,35420.90
1774,21988,35440.88
1775,22008,35460.86
1776,22028,35480.84
1777,22052,35500.81
1778,22076,35520.79
1779,22100,35540.77
1780,22124,35560.75
1781,22148,35580.73
1782,22168,35600.70
1783,22192,35620.68
1784,22212,35640.66
1785,22236,35660.64
1786,22244,35680.62
1787,22232,35700.59
1788,22204,35720.57
1789,22172,35740.55
1790,22140,35760.53
1791,22112,35780.51
1792,22096,35800.48
1793,22088,35820.46
1794,22088,35840.44
1795,22088,35860.42
1796,22088,35880.40
1797,22096,35900.37
1798,22108,35920.35
1799,22124,35940.33
1800,22136,35960.31
1801,22156,35980.28
1802,22172,36000.26
1803,22180,36020.24
1804,22192,36040.22
1805,22200,36060.20
1806,22212,36080.17
1807,22220,36100.15
1808,22240,36120.13
1809,22256,36140.11
1810,22272,36160.09
1811,22296,36180.06
1812,22312,36200.04
1813,22332,36220.02
1814,22356,36240.00
1815,22376,36259.98
1816,22396,36279.95
1817,22412,36299.93
1818,22432,36319.91
1819,22456,36339.89
1820,22472,36359.87
1821,22496,36379.84
1822,22512,36399.82
1823,22532,36419.80
1824,22532,36439.78
1825,22520,36459.76
1826,22500,36479.73
1827,22476,36499.71
1828,22452,36519.69
1829,22440,36539.67
1830,22432,36559.65
1831,22428,36579.62
1832,22420,36599.60
1833,22428,36619.58
1834,22428,36639.56
1835,22436,36659.54
1836,22440,36679.51
1837,22456,36699.49
1838,22468,36719.47
1839,22480,36739.45
1840,22492,36759.42
1841,22500,36779.40
1842,22504,36799.38
1843,22516,36819.36
1844,22524,36839.34
1845,22536,36859.31
1846,22544,36879.29
1847,22560,36899.27
1848,22580,36919.25
1849,22592,36939.23
1850,22612,36959.20
1851,22628,36979.18
1852,22648,36999.16
1853,22664,37019.14
1854,22676,37039.12
1855,22692,37059.09
1856,22708,37079.07
1857,22720,37099.05
1858,22732,37119.03
1859,22748,37139.01
1860,22748,37158.98
1861,22736,37178.96
1862,22716,37198.94
1863,22692,37218.92
1864,22676,37238.90
1865,22660,37258.87
1866,22656,37278.85
1867,22652,37298.83
1868,22644,37318.81
1869,22648,37338.79
1870,22652,37358.76
1871,22652,37378.74
1872,22660,37398.72
1873,22668,37418.70
1874,22676,37438.68
1875,22680,37458.65
1876,22688,37478.63
1877,22692,37498.61
1878,22692,37518.59
1879,22700,37538.56
1880,22708,37558.54
1881,22712,37578.52
1882,22728,37598.50
1883,22744,37618.48
1884,22752,37638.45
1885,22768,37658.43
1886,22784,37678.41
1887,22796,37698.39
1888,22812,37718.37
1889,22824,37738.34
1890,22836,37758.32
1891,22848,37778.30
1892,22864,37798.28
1893,22876,37818.26
1894,22884,37838.23
1895,22880,37858.21
1896,22864,37878.19
1897,22844,37898.17
1898,22820,37918.15
1899,22800,37938.12
1900,22788,37958.10
1901,22784,37978.08
1902,22780,37998.06
1903,22776,38018.04
1904,22776,38038.01
1905,22780,38057.99
1906,22784,38077.97
1907,22788,38097.95
1908,22796,38117.93
1909,22800,38137.90
1910,22808,38157.88
1911,22812,38177.86
1912,22812,38197.84
1913,22812,38217.82
1914,22812,38237.79
1915,22816,38257.77
1916,22820,38277.75
1917,22828,38297.73
1918,22840,38317.70
1919,22848,38337.68
1920,22860,38357.66
1921,22868,38377.64
1922,22876,38397.62
1923,22888,38417.59
1924,22896,38437.57
1925,22904,38457.55
1926,22912,38477.53
1927,22920,38497.51
1928,22932,38517.48
1929,22940,38537.46
1930,22948,38557.44
1931,22944,38577.42
1932,22932,38597.40
1933,22912,38617.37
1934,22888,38637.35
1935,22868,38657.33
1936,22852,38677.31
1937,22844,38697.29
1938,22840,38717.26
1939,22832,38737.24
1940,22832,38757.22
1941,22832,38777.20
1942,22832,38797.18
1943,22840,38817.15
1944,22844,38837.13
1945,22848,38857.11
1946,22852,38877.09
1947,22856,38897.07
1948,22860,38917.04
1949,22864,38937.02
1950,22876,38957.00
1951,22880,38976.98
1952,22892,38996.96
1953,22900,39016.93
1954,22912,39036.91
1955,22920,39056.89
1956,22932,39076.87
1957,22940,39096.84
1958,22948,39116.82
1959,22960,39136.80
1960,22964,39156.78
1961,22976,39176.76
1962,22984,39196.73
1963,22992,39216.71
1964,23004,39236.69
1965,23016,39256.67
1966,23032,39276.65
1967,23044,39296.62
1968,23056,39316.60
1969,23056,39336.58
1970,23048,39356.56
1971,23032,39376.54
1972,23012,39396.51
1973,22992,39416.49
1974,22976,39436.47
1975,22964,39456.45
1976,22964,39476.43
1977,22960,39496.40
1978,22960,39516.38
1979,22964,39536.36
1980,22964,39556.34
1981,22964,39576.32
1982,22972,39596.29
1983,22976,39616.27
1984,22980,39636.25
1985,22984,39656.23
1986,22988,39676.21
1987,22992,39696.18
1988,23000,39716.16
1989,23000,39736.14
1990,23004,39756.12
1991,23012,39776.10
1992,23020,39796.07
1993,23024,39816.05
1994,23028,39836.03
1995,23036,39856.01
1996,23044,39875.98
1997,23056,39895.96
1998,23064,39915.94
1999,23076,39935.92
2000,23084,39955.90
2001,23092,39975.87
2002,23100,39995.85
2003,23108,40015.83
2004,23120,40035.81
2005,23124,40055.79
2006,23120,40075.76
2007,23112,40095.74
2008,23096,40115.72
2009,23072,40135.70
2010,23052,40155.68
2011,23040,40175.65
2012,23032,40195.63
2013,23028,40215.61
2014,23024,40235.59
2015,23024,40255.57
2016,23024,40275.54
2017,23028,40295.52
2018,23028,40315.50
2019,23036,40335.48
2020,23036,40355.46
2021,23044,40375.43
2022,23044,40395.41
2023,23044,40415.39
2024,23044,40435.37
2025,23048,40455.35
2026,23048,40475.32
2027,23052,40495.30
2028,23052,40515.28
2029,23060,40535.26
2030,23064,40555.24
2031,23076,40575.21
2032,23084,40595.19
2033,23092,40615.17
2034,23100,40635.15
2035,23112,40655.12
2036,23116,40675.10
2037,23128,40695.08
2038,23132,40715.06
2039,23140,40735.04
2040,23140,40755.01
2041,23128,40774.99
2042,23112,40794.97
2043,23092,40814.95
2044,23072,40834.93
2045,23048,40854.90
2046,23040,40874.88
2047,23032,40894.86
2048,23028,40914.84
2049,23024,40934.82
2050,23024,40954.79
2051,23028,40974.77
2052,23028,40994.75
2053,23028,41014.73
2054,23032,41034.71
2055,23032,41054.68
2056,23032,41074.66
2057,23028,41094.64
2058,23032,41114.62
2059,23032,41134.60
2060,23032,41154.57
2061,23036,41174.55
2062,23040,41194.53
2063,23048,41214.51
2064,23052,41234.49
2065,23060,41254.46
2066,23072,41274.44
2067,23080,41294.42
2068,23088,41314.40
2069,23100,41334.38
2070,23112,41354.35
2071,23124,41374.33
2072,23132,41394.31
2073,23140,41414.29
2074,23140,41434.26
2075,23128,41454.24
2076,23104,41474.22
2077,23076,41494.20
2078,23040,41514.18
2079,23004,41534.15
2080,22984,41554.13
2081,22964,41574.11
2082,22948,41594.09
2083,22940,41614.07
2084,22928,41634.04
2085,22928,41654.02
2086,22924,41674.00
2087,22920,41693.98
2088,22920,41713.96
2089,22924,41733.93
2090,22924,41753.91
2091,22924,41773.89
2092,22924,41793.87
2093,22916,41813.85
2094,22916,41833.82
2095,22916,41853.80
2096,22916,41873.78
2097,22916,41893.76
2098,22916,41913.74
2099,22920,41933.71
2100,22924,41953.69
2101,22928,41973.67
2102,22936,41993.65
2103,22936,42013.63
2104,22948,42033.60
2105,22952,42053.58
2106,22956,42073.56
2107,22960,42093.54
2108,22948,42113.52
2109,22924,42133.49
2110,22892,42153.47
2111,22844,42173.45
2112,22804,42193.43
2113,22776,42213.40
2114,22752,42233.38
2115,22740,42253.36
2116,22728,42273.34
2117,22724,42293.32
2118,22720,42313.29
2119,22720,42333.27
2120,22724,42353.25
2121,22728,42373.23
2122,22736,42393.21
2123,22740,42413.18
2124,22748,42433.16
2125,22748,42453.14
2126,22760,42473.12
2127,22760,42493.10
2128,22768,42513.07
2129,22776,42533.05
2130,22788,42553.03
2131,22796,42573.01
2132,22808,42592.99
2133,22820,42612.96
2134,22832,42632.94
2135,22848,42652.92
2136,22856,42672.90
2137,22876,42692.88
2138,22888,42712.85
2139,22908,42732.83
2140,22916,42752.81
2141,22908,42772.79
2142,22896,42792.77
2143,22872,42812.74
2144,22844,42832.72
2145,22824,42852.70
2146,22808,42872.68
2147,22804,42892.66
2148,22800,42912.63
2149,22804,42932.61
2150,22808,42952.59
2151,22820,42972.57
2152,22824,42992.54
2153,22832,43012.52
2154,22848,43032.50
2155,22852,43052.48
2156,22864,43072.46
2157,22868,43092.43
2158,22876,43112.41
2159,22880,43132.39
2160,22888,43152.37
2161,22900,43172.35
2162,22912,43192.32
2163,22928,43212.30
2164,22940,43232.28
2165,22948,43252.26
2166,22964,43272.24
2167,22980,43292.21
2168,22996,43312.19
2169,23008,43332.17
2170,23020,43352.15
2171,23036,43372.13
2172,23048,43392.10
2173,23060,43412.08
2174,23060,43432.06
2175,23056,43452.04
2176,23044,43472.02
2177,23028,43491.99
2178,23016,43511.97
2179,23012,43531.95
2180,23008,43551.93
2181,23008,43571.91
2182,23012,43591.88
2183,23024,43611.86
2184,23036,43631.84
2185,23044,43651.82
2186,23056,43671.80
2187,23060,43691.77
2188,23064,43711.75
2189,23068,43731.73
2190,23072,43751.71
2191,23072,43771.68
2192,23076,43791.66
2193,23076,43811.64
2194,23084,43831.62
2195,23092,43851.60
2196,23100,43871.57
2197,23108,43891.55
2198,23120,43911.53
2199,23128,43931.51
2200,23144,43951.49
2201,23152,43971.46
2202,23164,43991.44
2203,23172,44011.42
2204,23184,44031.40
2205,23192,44051.38
2206,23200,44071.35
2207,23212,44091.33
2208,23208,44111.31
2209,23200,44131.29
2210,23184,44151.27
2211,23172,44171.24
2212,23160,44191.22
2213,23156,44211.20
2214,23156,44231.18
2215,23156,44251.16
2216,23164,44271.13
2217,23168,44291.11
2218,23172,44311.09
2219,23180,44331.07
2220,23192,44351.05
2221,23196,44371.02
2222,23204,44391.00
2223,23216,44410.98
2224,23220,44430.96
2225,23224,44450.94
2226,23232,44470.91
2227,23236,44490.89
2228,23244,44510.87
2229,23248,44530.85
2230,23260,44550.82
2231,23268,44570.80
2232,23280,44590.78
2233,23288,44610.76
2234,23300,44630.74
2235,23308,44650.71
2236,23316,44670.69
2237,23324,44690.67
2238,23332,44710.65
2239,23340,44730.63
2240,23344,44750.60
2241,23356,44770.58
2242,23356,44790.56
2243,23360,44810.54
2244,23352,44830.52
2245,23340,44850.49
2246,23324,44870.47
2247,23312,44890.45
2248,23300,44910.43
2249,23292,44930.41
2250,23292,44950.38
2251,23284,44970.36
2252,23284,44990.34
2253,23292,45010.32
2254,23288,45030.30
2255,23292,45050.27
2256,23300,45070.25
2257,23304,45090.23
2258,23308,45110.21
2259,23316,45130.19
2260,23316,45150.16
2261,23324,45170.14
2262,23324,45190.12
2263,23328,45210.10
2264,23332,45230.08
2265,23340,45250.05
2266,23352,45270.03
2267,23352,45290.01
2268,23364,45309.99
2269,23372,45329.96
2270,23376,45349.94
2271,23384,45369.92
2272,23388,45389.90
2273,23396,45409.88
2274,23408,45429.85
2275,23412,45449.83
2276,23420,45469.81
2277,23428,45489.79
2278,23432,45509.77
2279,23424,45529.74
2280,23412,45549.72
2281,23396,45569.70
2282,23380,45589.68
2283,23368,45609.66
2284,23360,45629.63
2285,23356,45649.61
2286,23352,45669.59
2287,23348,45689.57
2288,23348,45709.55
2289,23348,45729.52
2290,23352,45749.50
2291,23352,45769.48
2292,23360,45789.46
2293,23364,45809.44
2294,23364,45829.41
2295,23364,45849.39
2296,23364,45869.37
2297,23360,45889.35
2298,23368,45909.33
2299,23368,45929.30
2300,23376,45949.28
2301,23380,45969.26
2302,23384,45989.24
2303,23392,46009.22
2304,23396,46029.19
2305,23404,46049.17
2306,23412,46069.15
2307,23420,46089.13
2308,23420,46109.10
2309,23428,46129.08
2310,23436,46149.06
2311,23444,46169.04
2312,23452,46189.02
2313,23456,46208.99
2314,23452,46228.97
2315,23444,46248.95
2316,23432,46268.93
2317,23416,46288.91
2318,23404,46308.88
2319,23396,46328.86
2320,23388,46348.84
2321,23388,46368.82
2322,23384,46388.80
2323,23384,46408.77
2324,23388,46428.75
2325,23392,46448.73
2326,23396,46468.71
2327,23388,46488.69
2328,23396,46508.66
2329,23396,46528.64
2330,23392,46548.62
2331,23384,46568.60
2332,23384,46588.58
2333,23384,46608.55
2334,23384,46628.53
2335,23384,46648.51
2336,23384,46668.49
2337,23384,46688.47
2338,23388,46708.44
2339,23392,46728.42
2340,23392,46748.40
2341,23396,46768.38
2342,23396,46788.36
2343,23400,46808.33
2344,23404,46828.31
2345,23404,46848.29
2346,23408,46868.27
2347,23408,46888.24
2348,23408,46908.22
2349,23396,46928.20
2350,23380,46948.18
2351,23364,46968.16
2352,23352,46988.13
2353,23336,47008.11
2354,23332,47028.09
2355,23332,47048.07
2356,23332,47068.05
2357,23332,47088.02
2358,23328,47108.00
2359,23336,47127.98
2360,23340,47147.96
2361,23340,47167.94
2362,23344,47187.91
2363,23344,47207.89
2364,23344,47227.87
2365,23340,47247.85
2366,23340,47267.83
2367,23340,47287.80
2368,23340,47307.78
2369,23340,47327.76
2370,23340,47347.74
2371,23344,47367.72
2372,23348,47387.69
2373,23356,47407.67
2374,23356,47427.65
2375,23360,47447.63
2376,23364,47467.61
2377,23364,47487.58
2378,23368,47507.56
2379,23372,47527.54
2380,23372,47547.52
2381,23380,47567.49
2382,23372,47587.47
2383,23356,47607.45
2384,23332,47627.43
2385,23308,47647.41
2386,23284,47667.38
2387,23268,47687.36
2388,23248,47707.34
2389,23236,47727.32
2390,23228,47747.30
2391,23220,47767.27
2392,23208,47787.25
2393,23204,47807.23
2394,23204,47827.21
2395,23204,47847.19
2396,23208,47867.16
2397,23204,47887.14
2398,23208,47907.12
2399,23204,47927.10
2400,23200,47947.08
2401,23200,47967.05
2402,23204,47987.03
2403,23204,48007.01
2404,23208,48026.99
2405,23212,48046.97
2406,23212,48066.94
2407,23220,48086.92
2408,23224,48106.90
2409,23228,48126.88
2410,23236,48146.86
2411,23244,48166.83
2412,23252,48186.81
2413,23252,48206.79
2414,23260,48226.77
2415,23260,48246.75
2416,23272,48266.72
2417,23272,48286.70
2418,23280,48306.68
2419,23276,48326.66
2420,23260,48346.63
2421,23236,48366.61
2422,23204,48386.59
2423,23172,48406.57
2424,23140,48426.55
2425,23116,48446.52
2426,23100,48466.50
2427,23080,48486.48
2428,23068,48506.46
2429,23052,48526.44
2430,23044,48546.41
2431,23036,48566.39
2432,23028,48586.37
2433,23028,48606.35
2434,23028,48626.33
2435,23024,48646.30
2436,23024,48666.28
2437,23016,48686.26
2438,23012,48706.24
2439,23008,48726.22
2440,23004,48746.19
2441,23008,48766.17
2442,23012,48786.15
2443,23020,48806.13
2444,23028,48826.11
2445,23032,48846.08
2446,23040,48866.06
2447,23052,48886.04
2448,23056,48906.02
2449,23064,48926.00
2450,23072,48945.97
2451,23084,48965.95
2452,23088,48985.93
2453,23100,49005.91
2454,23104,49025.89
2455,23112,49045.86
2456,23112,49065.84
2457,23100,49085.82
2458,23076,49105.80
2459,23040,49125.77
2460,23008,49145.75
2461,22972,49165.73
2462,22948,49185.71
2463,22932,49205.69
2464,22916,49225.66
2465,22904,49245.64
2466,22900,49265.62
2467,22896,49285.60
2468,22896,49305.58
2469,22900,49325.55
2470,22900,49345.53
2471,22900,49365.51
2472,22904,49385.49
2473,22900,49405.47
2474,22896,49425.44
2475,22892,49445.42
2476,22888,49465.40
2477,22892,49485.38
2478,22892,49505.36
2479,22900,49525.33
2480,22904,49545.31
2481,22912,49565.29
2482,22916,49585.27
2483,22924,49605.25
2484,22936,49625.22
2485,22948,49645.20
2486,22952,49665.18
2487,22960,49685.16
2488,22972,49705.14
2489,22976,49725.11
2490,22988,49745.09
2491,22996,49765.07
2492,23000,49785.05
2493,22988,49805.03
2494,22964,49825.00
2495,22936,49844.98
2496,22904,49864.96
2497,22876,49884.94
2498,22856,49904.91
2499,22844,49924.89
2500,22836,49944.87
2501,22832,49964.85
2502,22832,49984.83
2503,22832,50004.80
2504,22840,50024.78
2505,22844,50044.76
2506,22852,50064.74
2507,22852,50084.72
2508,22856,50104.69
2509,22856,50124.67
2510,22856,50144.65
2511,22856,50164.63
2512,22856,50184.61
2513,22860,50204.58
2514,22864,50224.56
2515,22868,50244.54
2516,22880,50264.52
2517,22888,50284.50
2518,22892,50304.47
2519,22900,50324.45
2520,22908,50344.43
2521,22916,50364.41
2522,22928,50384.39
2523,22936,50404.36
2524,22948,50424.34
2525,22952,50444.32
2526,22956,50464.30
2527,22940,50484.28
2528,22912,50504.25
2529,22876,50524.23
2530,22844,50544.21
2531,22816,50564.19
2532,22800,50584.17
2533,22784,50604.14
2534,22784,50624.12
2535,22784,50644.10
2536,22780,50664.08
2537,22784,50684.05
2538,22788,50704.03
2539,22800,50724.01
2540,22804,50743.99
2541,22812,50763.97
2542,22820,50783.94
2543,22816,50803.92
2544,22824,50823.90
2545,22828,50843.88
2546,22836,50863.86
2547,22844,50883.83
2548,22852,50903.81
2549,22864,50923.79
2550,22876,50943.77
2551,22884,50963.75
2552,22900,50983.72
2553,22912,51003.70
2554,22924,51023.68
2555,22940,51043.66
2556,22956,51063.64
2557,22968,51083.61
2558,22988,51103.59
2559,23000,51123.57
2560,23016,51143.55
2561,23028,51163.53
2562,23028,51183.50
2563,23016,51203.48
2564,22992,51223.46
2565,22948,51243.44
2566,22912,51263.42
2567,22876,51283.39
2568,22844,51303.37
2569,22828,51323.35
2570,22816,51343.33
2571,22808,51363.31
2572,22804,51383.28
2573,22796,51403.26
2574,22800,51423.24
2575,22800,51443.22
2576,22800,51463.19
2577,22804,51483.17
2578,22804,51503.15
2579,22804,51523.13
2580,22800,51543.11
2581,22804,51563.08
2582,22808,51583.06
2583,22808,51603.04
2584,22812,51623.02
2585,22820,51643.00
2586,22828,51662.97
2587,22836,51682.95
2588,22848,51702.93
2589,22860,51722.91
2590,22868,51742.89
2591,22880,51762.86
2592,22892,51782.84
2593,22904,51802.82
2594,22916,51822.80
2595,22924,51842.78
2596,22936,51862.75
2597,22936,51882.73
2598,22928,51902.71
2599,22896,51922.69
2600,22856,51942.67
2601,22812,51962.64
2602,22780,51982.62
2603,22748,52002.60
2604,22732,52022.58
2605,22720,52042.56
2606,22720,52062.53
2607,22716,52082.51
2608,22716,52102.49
2609,22716,52122.47
2610,22724,52142.45
2611,22728,52162.42
2612,22732,52182.40
2613,22732,52202.38
2614,22740,52222.36
2615,22732,52242.33
2616,22740,52262.31
2617,22740,52282.29
2618,22744,52302.27
2619,22752,52322.25
2620,22756,52342.22
2621,22764,52362.20
2622,22776,52382.18
2623,22784,52402.16
2624,22796,52422.14
2625,22804,52442.11
2626,22812,52462.09
2627,22824,52482.07
2628,22832,52502.05
2629,22840,52522.03
2630,22848,52542.00
2631,22848,52561.98
2632,22828,52581.96
2633,22792,52601.94
2634,22748,52621.92
2635,22708,52641.89
2636,22676,52661.87
2637,22652,52681.85
2638,22644,52701.83
2639,22636,52721.81
2640,22636,52741.78
2641,22644,52761.76
2642,22648,52781.74
2643,22656,52801.72
2644,22664,52821.70
2645,22672,52841.67
2646,22672,52861.65
2647,22676,52881.63
2648,22672,52901.61
2649,22672,52921.59
2650,22672,52941.56
2651,22676,52961.54
2652,22680,52981.52
2653,22684,53001.50
2654,22696,53021.47
2655,22704,53041.45
2656,22720,53061.43
2657,22728,53081.41
2658,22740,53101.39
2659,22748,53121.36
2660,22756,53141.34
2661,22768,53161.32
2662,22776,53181.30
2663,22772,53201.28
2664,22752,53221.25
2665,22716,53241.23
2666,22676,53261.21
2667,22636,53281.19
2668,22600,53301.17
2669,22580,53321.14
2670,22568,53341.12
2671,22560,53361.10
2672,22560,53381.08
2673,22560,53401.06
2674,22568,53421.03
2675,22580,53441.01
2676,22584,53460.99
2677,22584,53480.97
2678,22588,53500.95
2679,22584,53520.92
2680,22584,53540.90
2681,22584,53560.88
2682,22592,53580.86
2683,22596,53600.84
2684,22604,53620.81
2685,22616,53640.79
2686,22624,53660.77
2687,22636,53680.75
2688,22644,53700.73
2689,22660,53720.70
2690,22672,53740.68
2691,22688,53760.66
2692,22704,53780.64
2693,22716,53800.61
2694,22720,53820.59
2695,22708,53840.57
2696,22664,53860.55
2697,22620,53880.53
2698,22572,53900.50
2699,22528,53920.48
2700,22504,53940.46
2701,22488,53960.44
2702,22480,53980.42
2703,22476,54000.39
2704,22472,54020.37
2705,22476,54040.35
2706,22488,54060.33
2707,22492,54080.31
2708,22504,54100.28
2709,22512,54120.26
2710,22520,54140.24
2711,22520,54160.22
2712,22528,54180.20
2713,22528,54200.17
2714,22536,54220.15
2715,22540,54240.13
2716,22548,54260.11
2717,22560,54280.09
2718,22576,54300.06
2719,22588,54320.04
2720,22608,54340.02
2721,22612,54360.00
2722,22628,54379.98
2723,22640,54399.95
2724,22652,54419.93
2725,22664,54439.91
2726,22660,54459.89
2727,22628,54479.87
2728,22584,54499.84
2729,22528,54519.82
2730,22476,54539.80
2731,22432,54559.78
2732,22408,54579.75
2733,22392,54599.73
2734,22380,54619.71
2735,22376,54639.69
2736,22368,54659.67
2737,22372,54679.64
2738,22372,54699.62
2739,22380,54719.60
2740,22384,54739.58
2741,22392,54759.56
2742,22396,54779.53
2743,22400,54799.51
2744,22408,54819.49
2745,22412,54839.47
2746,22420,54859.45
2747,22432,54879.42
2748,22448,54899.40
2749,22460,54919.38
2750,22476,54939.36
2751,22492,54959.34
2752,22508,54979.31
2753,22524,54999.29
2754,22540,55019.27
2755,22560,55039.25
2756,22580,55059.23
2757,22600,55079.20
2758,22604,55099.18
2759,22596,55119.16
2760,22568,55139.14
2761,22528,55159.12
2762,22480,55179.09
2763,22444,55199.07
2764,22420,55219.05
2765,22404,55239.03
2766,22404,55259.01
2767,22404,55278.98
2768,22412,55298.96
2769,22424,55318.94
2770,22432,55338.92
2771,22444,55358.89
2772,22460,55378.87
2773,22468,55398.85
2774,22476,55418.83
2775,22480,55438.81
2776,22484,55458.78
2777,22488,55478.76
2778,22496,55498.74
2779,22508,55518.72
2780,22520,55538.70
2781,22532,55558.67
2782,22548,55578.65
2783,22568,55598.63
2784,22584,55618.61
2785,22600,55638.59
2786,22616,55658.56
2787,22632,55678.54
2788,22652,55698.52
2789,22668,55718.50
2790,22688,55738.48
2791,22688,55758.45
2792,22676,55778.43
2793,22652,55798.41
2794,22624,55818.39
2795,22596,55838.37
2796,22576,55858.34
2797,22564,55878.32
2798,22556,55898.30
2799,22560,55918.28
2800,22568,55938.26
2801,22576,55958.23
2802,22588,55978.21
2803,22600,55998.19
2804,22620,56018.17
2805,22632,56038.15
2806,22644,56058.12
2807,22652,56078.10
2808,22664,56098.08
2809,22668,56118.06
2810,22680,56138.03
2811,22688,56158.01
2812,22700,56177.99
2813,22712,56197.97
2814,22724,56217.95
2815,22736,56237.92
2816,22752,56257.90
2817,22768,56277.88
2818,22784,56297.86
2819,22800,56317.84
2820,22816,56337.81
2821,22828,56357.79
2822,22844,56377.77
2823,22840,56397.75
2824,22828,56417.73
2825,22796,56437.70
2826,22768,56457.68
2827,22740,56477.66
2828,22720,56497.64
2829,22708,56517.62
2830,22696,56537.59
2831,22700,56557.57
2832,22704,56577.55
2833,22708,56597.53
2834,22716,56617.51
2835,22728,56637.48
2836,22732,56657.46
2837,22744,56677.44
2838,22748,56697.42
2839,22752,56717.40
2840,22760,56737.37
2841,22764,56757.35
2842,22772,56777.33
2843,22784,56797.31
2844,22796,56817.29
2845,22808,56837.26
2846,22824,56857.24
2847,22836,56877.22
2848,22852,56897.20
2849,22868,56917.17
2850,22888,56937.15
2851,22904,56957.13
2852,22920,56977.11
2853,22936,56997.09
2854,22952,57017.06
2855,22968,57037.04
2856,22984,57057.02
2857,22992,57077.00
2858,22976,57096.98
2859,22956,57116.95
2860,22928,57136.93
2861,22900,57156.91
2862,22880,57176.89
2863,22864,57196.87
2864,22860,57216.84
2865,22860,57236.82
2866,22856,57256.80
2867,22856,57276.78
2868,22860,57296.76
2869,22868,57316.73
2870,22868,57336.71
2871,22876,57356.69
2872,22884,57376.67
2873,22888,57396.65
2874,22892,57416.62
2875,22896,57436.60
2876,22900,57456.58
2877,22904,57476.56
2878,22908,57496.54
2879,22916,57516.51
2880,22924,57536.49
2881,22936,57556.47
2882,22952,57576.45
2883,22964,57596.43
2884,22972,57616.40
2885,22984,57636.38
2886,22996,57656.36
2887,23008,57676.34
2888,23020,57696.31
2889,23028,57716.29
2890,23040,57736.27
2891,23056,57756.25
2892,23064,57776.23
2893,23064,57796.20
2894,23052,57816.18
2895,23032,57836.16
2896,23000,57856.14
2897,22980,57876.12
2898,22960,57896.09
2899,22948,57916.07
2900,22944,57936.05
2901,22936,57956.03
2902,22936,57976.01
2903,22940,57995.98
2904,22940,58015.96
2905,22948,58035.94
2906,22952,58055.92
2907,22956,58075.90
2908,22968,58095.87
2909,22972,58115.85
2910,22976,58135.83
2911,22980,58155.81
2912,22984,58175.79
2913,22992,58195.76
2914,22996,58215.74
2915,23004,58235.72
2916,23016,58255.70
2917,23024,58275.68
2918,23040,58295.65
2919,23048,58315.63
2920,23064,58335.61
2921,23072,58355.59
2922,23084,58375.57
2923,23092,58395.54
2924,23100,58415.52
2925,23112,58435.50
2926,23120,58455.48
2927,23128,58475.45
2928,23140,58495.43
2929,23148,58515.41
2930,23156,58535.39
2931,23156,58555.37
2932,23148,58575.34
2933,23128,58595.32
2934,23100,58615.30
2935,23080,58635.28
2936,23060,58655.26
2937,23048,58675.23
2938,23040,58695.21
2939,23040,58715.19
2940,23036,58735.17
2941,23044,58755.15
2942,23048,58775.12
2943,23052,58795.10
2944,23060,58815.08
2945,23064,58835.06
2946,23072,58855.04
2947,23076,58875.01
2948,23080,58894.99
2949,23084,58914.97
2950,23088,58934.95
2951,23092,58954.93
2952,23096,58974.90
2953,23104,58994.88
2954,23112,59014.86
2955,23120,59034.84
2956,23132,59054.82
2957,23140,59074.79
2958,23152,59094.77
2959,23164,59114.75
2960,23176,59134.73
2961,23184,59154.71
2962,23192,59174.68
2963,23200,59194.66
2964,23212,59214.64
2965,23224,59234.62
2966,23232,59254.59
2967,23236,59274.57
2968,23236,59294.55
2969,23220,59314.53
2970,23208,59334.51
2971,23184,59354.48
2972,23160,59374.46
2973,23148,59394.44
2974,23140,59414.42
2975,23136,59434.40
2976,23136,59454.37
2977,23136,59474.35
2978,23132,59494.33
2979,23136,59514.31
2980,23136,59534.29
2981,23140,59554.26
2982,23140,59574.24
2983,23148,59594.22
2984,23144,59614.20
2985,23144,59634.18
2986,23148,59654.15
2987,23144,59674.13
2988,23148,59694.11
2989,23148,59714.09
2990,23156,59734.07
2991,23160,59754.04
2992,23164,59774.02
2993,23168,59794.00
2994,23176,59813.98
2995,23188,59833.96
2996,23192,59853.93
2997,23204,59873.91
2998,23212,59893.89
2999,23220,59913.87
