Sample_Index,IR_Value,Timestamp_ms
0,20836,0.00
1,21012,20.80
2,21212,41.59
3,21484,62.39
4,21624,83.18
5,21828,103.98
6,22092,124.78
7,22420,145.57
8,22744,166.37
9,22992,187.16
10,23148,207.96
11,23248,228.76
12,23336,249.55
13,23408,270.35
14,23440,291.14
15,23444,311.94
16,23440,332.74
17,23436,353.53
18,23532,374.33
19,23720,395.12
20,23748,415.92
21,23756,436.71
22,23784,457.51
23,23808,478.31
24,23840,499.10
25,23860,519.90
26,23860,540.69
27,23868,561.49
28,23884,582.29
29,23900,603.08
30,23908,623.88
31,23896,644.67
32,23912,665.47
33,23944,686.27
34,23940,707.06
35,23916,727.86
36,23904,748.65
37,23900,769.45
38,23868,790.25
39,23836,811.04
40,23808,831.84
41,23788,852.63
42,23772,873.43
43,23760,894.23
44,23756,915.02
45,23748,935.82
46,23736,956.61
47,23724,977.41
48,23716,998.21
49,23700,1019.00
50,23692,1039.80
51,23680,1060.59
52,23680,1081.39
53,23688,1102.18
54,23700,1122.98
55,23720,1143.78
56,23740,1164.57
57,23760,1185.37
58,23768,1206.16
59,23776,1226.96
60,23788,1247.76
61,23800,1268.55
62,23820,1289.35
63,23840,1310.14
64,23860,1330.94
65,23876,1351.74
66,23892,1372.53
67,23896,1393.33
68,23888,1414.12
69,23872,1434.92
70,23864,1455.72
71,23868,1476.51
72,23872,1497.31
73,23884,1518.10
74,23908,1538.90
75,23932,1559.70
76,23964,1580.49
77,24000,1601.29
78,24032,1622.08
79,24056,1642.88
80,24076,1663.68
81,24096,1684.47
82,24112,1705.27
83,24128,1726.06
84,24132,1746.86
85,24140,1767.66
86,24152,1788.45
87,24164,1809.25
88,24172,1830.04
89,24188,1850.84
90,24204,1871.63
91,24216,1892.43
92,24232,1913.23
93,24248,1934.02
94,24256,1954.82
95,24272,1975.61
96,24280,1996.41
97,24288,2017.21
98,24276,2038.00
99,24256,2058.80
100,24236,2079.59
101,24224,2100.39
102,24220,2121.19
103,24228,2141.98
104,24236,2162.78
105,24248,2183.57
106,24264,2204.37
107,24276,2225.17
108,24292,2245.96
109,24304,2266.76
110,24312,2287.55
111,24320,2308.35
112,24316,2329.15
113,24320,2349.94
114,24320,2370.74
115,24328,2391.53
116,24332,2412.33
117,24340,2433.13
118,24344,2453.92
119,24360,2474.72
120,24368,2495.51
121,24380,2516.31
122,24384,2537.10
123,24396,2557.90
124,24404,2578.70
125,24408,2599.49
126,24408,2620.29
127,24384,2641.08
128,24356,2661.88
129,24328,2682.68
130,24308,2703.47
131,24300,2724.27
132,24296,2745.06
133,24300,2765.86
134,24304,2786.66
135,24316,2807.45
136,24324,2828.25
137,24336,2849.04
138,24344,2869.84
139,24344,2890.64
140,24348,2911.43
141,24348,2932.23
142,24348,2953.02
143,24348,2973.82
144,24348,2994.62
145,24348,3015.41
146,24352,3036.21
147,24356,3057.00
148,24368,3077.80
149,24372,3098.60
150,24380,3119.39
151,24380,3140.19
152,24392,3160.98
153,24400,3181.78
154,24396,3202.58
155,24376,3223.37
156,24352,3244.17
157,24324,3264.96
158,24300,3285.76
159,24288,3306.55
160,24284,3327.35
161,24280,3348.15
162,24284,3368.94
163,24292,3389.74
164,24300,3410.53
165,24308,3431.33
166,24312,3452.13
167,24316,3472.92
168,24316,3493.72
169,24312,3514.51
170,24312,3535.31
171,24304,3556.11
172,24304,3576.90
173,24304,3597.70
174,24304,3618.49
175,24312,3639.29
176,24316,3660.09
177,24320,3680.88
178,24324,3701.68
179,24332,3722.47
180,24340,3743.27
181,24340,3764.07
182,24324,3784.86
183,24292,3805.66
184,24256,3826.45
185,24220,3847.25
186,24188,3868.05
187,24168,3888.84
188,24160,3909.64
189,24156,3930.43
190,24156,3951.23
191,24164,3972.02
192,24168,3992.82
193,24172,4013.62
194,24172,4034.41
195,24168,4055.21
196,24160,4076.00
197,24152,4096.80
198,24140,4117.60
199,24132,4138.39
200,24128,4159.19
201,24120,4179.98
202,24116,4200.78
203,24120,4221.58
204,24116,4242.37
205,24112,4263.17
206,24108,4283.96
207,24108,4304.76
208,24092,4325.56
209,24060,4346.35
210,24008,4367.15
211,23956,4387.94
212,23908,4408.74
213,23868,4429.54
214,23840,4450.33
215,23820,4471.13
216,23812,4491.92
217,23792,4512.72
218,23784,4533.52
219,23780,4554.31
220,23776,4575.11
221,23764,4595.90
222,23768,4616.70
223,23852,4637.49
224,23900,4658.29
225,23860,4679.09
226,23796,4699.88
227,23756,4720.68
228,23740,4741.47
229,23748,4762.27
230,23764,4783.07
231,23772,4803.86
232,23756,4824.66
233,23732,4845.45
234,23708,4866.25
235,23680,4887.05
236,23604,4907.84
237,23504,4928.64
238,23376,4949.43
239,23204,4970.23
240,23052,4991.03
241,22964,5011.82
242,22896,5032.62
243,22800,5053.41
244,22688,5074.21
245,22620,5095.01
246,22592,5115.80
247,22552,5136.60
248,22480,5157.39
249,22404,5178.19
250,22380,5198.99
251,22384,5219.78
252,22360,5240.58
253,22336,5261.37
254,22328,5282.17
255,22348,5302.97
256,22376,5323.76
257,22416,5344.56
258,22456,5365.35
259,22516,5386.15
260,22600,5406.94
261,22704,5427.74
262,22816,5448.54
263,22912,5469.33
264,22992,5490.13
265,23076,5510.92
266,23176,5531.72
267,23296,5552.52
268,23408,5573.31
269,23464,5594.11
270,23488,5614.90
271,23496,5635.70
272,23484,5656.50
273,23484,5677.29
274,23500,5698.09
275,23536,5718.88
276,23600,5739.68
277,23680,5760.48
278,23760,5781.27
279,23816,5802.07
280,23868,5822.86
281,23912,5843.66
282,23956,5864.46
283,23984,5885.25
284,24008,5906.05
285,24024,5926.84
286,24052,5947.64
287,24076,5968.44
288,24108,5989.23
289,24140,6010.03
290,24172,6030.82
291,24204,6051.62
292,24236,6072.41
293,24264,6093.21
294,24292,6114.01
295,24324,6134.80
296,24352,6155.60
297,24380,6176.39
298,24408,6197.19
299,24432,6217.99
300,24452,6238.78
301,24476,6259.58
302,24496,6280.37
303,24512,6301.17
304,24532,6321.97
305,24552,6342.76
306,24568,6363.56
307,24592,6384.35
308,24608,6405.15
309,24600,6425.95
310,24576,6446.74
311,24552,6467.54
312,24528,6488.33
313,24524,6509.13
314,24528,6529.93
315,24540,6550.72
316,24552,6571.52
317,24572,6592.31
318,24592,6613.11
319,24608,6633.91
320,24624,6654.70
321,24636,6675.50
322,24644,6696.29
323,24656,6717.09
324,24656,6737.89
325,24664,6758.68
326,24664,6779.48
327,24672,6800.27
328,24680,6821.07
329,24688,6841.86
330,24700,6862.66
331,24708,6883.46
332,24720,6904.25
333,24732,6925.05
334,24744,6945.84
335,24756,6966.64
336,24768,6987.44
337,24776,7008.23
338,24788,7029.03
339,24796,7049.82
340,24808,7070.62
341,24820,7091.42
342,24828,7112.21
343,24836,7133.01
344,24848,7153.80
345,24856,7174.60
346,24860,7195.40
347,24844,7216.19
348,24832,7236.99
349,24816,7257.78
350,24812,7278.58
351,24816,7299.38
352,24828,7320.17
353,24836,7340.97
354,24848,7361.76
355,24860,7382.56
356,24872,7403.36
357,24884,7424.15
358,24892,7444.95
359,24908,7465.74
360,24912,7486.54
361,24916,7507.33
362,24920,7528.13
363,24924,7548.93
364,24928,7569.72
365,24928,7590.52
366,24936,7611.31
367,24944,7632.11
368,24952,7652.91
369,24964,7673.70
370,24972,7694.50
371,24984,7715.29
372,24996,7736.09
373,25000,7756.89
374,25008,7777.68
375,25016,7798.48
376,25024,7819.27
377,25032,7840.07
378,25040,7860.87
379,25048,7881.66
380,25044,7902.46
381,25036,7923.25
382,25028,7944.05
383,25016,7964.85
384,25016,7985.64
385,25028,8006.44
386,25036,8027.23
387,25048,8048.03
388,25064,8068.83
389,25076,8089.62
390,25084,8110.42
391,25096,8131.21
392,25108,8152.01
393,25116,8172.81
394,25116,8193.60
395,25116,8214.40
396,25116,8235.19
397,25120,8255.99
398,25124,8276.78
399,25132,8297.58
400,25140,8318.38
401,25148,8339.17
402,25152,8359.97
403,25160,8380.76
404,25164,8401.56
405,25164,8422.36
406,25168,8443.15
407,25172,8463.95
408,25176,8484.74
409,25180,8505.54
410,25188,8526.34
411,25192,8547.13
412,25196,8567.93
413,25184,8588.72
414,25164,8609.52
415,25152,8630.32
416,25144,8651.11
417,25152,8671.91
418,25160,8692.70
419,25172,8713.50
420,25184,8734.30
421,25192,8755.09
422,25200,8775.89
423,25204,8796.68
424,25212,8817.48
425,25216,8838.28
426,25224,8859.07
427,25228,8879.87
428,25228,8900.66
429,25228,8921.46
430,25236,8942.25
431,25240,8963.05
432,25244,8983.85
433,25252,9004.64
434,25256,9025.44
435,25260,9046.23
436,25268,9067.03
437,25268,9087.83
438,25280,9108.62
439,25280,9129.42
440,25284,9150.21
441,25292,9171.01
442,25296,9191.81
443,25296,9212.60
444,25300,9233.40
445,25304,9254.19
446,25300,9274.99
447,25288,9295.79
448,25272,9316.58
449,25256,9337.38
450,25252,9358.17
451,25260,9378.97
452,25264,9399.77
453,25276,9420.56
454,25284,9441.36
455,25292,9462.15
456,25296,9482.95
457,25296,9503.75
458,25304,9524.54
459,25308,9545.34
460,25308,9566.13
461,25316,9586.93
462,25316,9607.73
463,25320,9628.52
464,25320,9649.32
465,25324,9670.11
466,25328,9690.91
467,25332,9711.70
468,25340,9732.50
469,25344,9753.30
470,25348,9774.09
471,25352,9794.89
472,25360,9815.68
473,25364,9836.48
474,25368,9857.28
475,25372,9878.07
476,25380,9898.87
477,25384,9919.66
478,25384,9940.46
479,25388,9961.26
480,25392,9982.05
481,25396,10002.85
482,25384,10023.64
483,25372,10044.44
484,25360,10065.24
485,25352,10086.03
486,25352,10106.83
487,25360,10127.62
488,25368,10148.42
489,25372,10169.22
490,25380,10190.01
491,25384,10210.81
492,25388,10231.60
493,25392,10252.40
494,25400,10273.20
495,25396,10293.99
496,25396,10314.79
497,25400,10335.58
498,25392,10356.38
499,25392,10377.17
500,25392,10397.97
501,25400,10418.77
502,25404,10439.56
503,25408,10460.36
504,25412,10481.15
505,25420,10501.95
506,25424,10522.75
507,25424,10543.54
508,25428,10564.34
509,25436,10585.13
510,25436,10605.93
511,25436,10626.73
512,25444,10647.52
513,25448,10668.32
514,25444,10689.11
515,25436,10709.91
516,25424,10730.71
517,25412,10751.50
518,25412,10772.30
519,25412,10793.09
520,25420,10813.89
521,25428,10834.69
522,25436,10855.48
523,25444,10876.28
524,25452,10897.07
525,25456,10917.87
526,25460,10938.67
527,25460,10959.46
528,25464,10980.26
529,25456,11001.05
530,25452,11021.85
531,25452,11042.65
532,25452,11063.44
533,25452,11084.24
534,25452,11105.03
535,25456,11125.83
536,25460,11146.62
537,25464,11167.42
538,25464,11188.22
539,25468,11209.01
540,25468,11229.81
541,25468,11250.60
542,25472,11271.40
543,25476,11292.20
544,25480,11312.99
545,25484,11333.79
546,25484,11354.58
547,25476,11375.38
548,25464,11396.18
549,25452,11416.97
550,25444,11437.77
551,25440,11458.56
552,25444,11479.36
553,25452,11500.16
554,25460,11520.95
555,25468,11541.75
556,25480,11562.54
557,25480,11583.34
558,25484,11604.14
559,25488,11624.93
560,25488,11645.73
561,25488,11666.52
562,25488,11687.32
563,25488,11708.12
564,25484,11728.91
565,25488,11749.71
566,25484,11770.50
567,25484,11791.30
568,25488,11812.09
569,25492,11832.89
570,25492,11853.69
571,25492,11874.48
572,25496,11895.28
573,25496,11916.07
574,25504,11936.87
575,25508,11957.67
576,25512,11978.46
577,25516,11999.26
578,25516,12020.05
579,25516,12040.85
580,25508,12061.65
581,25492,12082.44
582,25476,12103.24
583,25464,12124.03
584,25460,12144.83
585,25460,12165.63
586,25464,12186.42
587,25468,12207.22
588,25476,12228.01
589,25480,12248.81
590,25488,12269.61
591,25488,12290.40
592,25492,12311.20
593,25492,12331.99
594,25496,12352.79
595,25492,12373.59
596,25488,12394.38
597,25492,12415.18
598,25488,12435.97
599,25488,12456.77
600,25484,12477.57
601,25488,12498.36
602,25492,12519.16
603,25492,12539.95
604,25496,12560.75
605,25500,12581.54
606,25500,12602.34
607,25504,12623.14
608,25504,12643.93
609,25508,12664.73
610,25508,12685.52
611,25504,12706.32
612,25488,12727.12
613,25468,12747.91
614,25440,12768.71
615,25420,12789.50
616,25412,12810.30
617,25404,12831.10
618,25400,12851.89
619,25400,12872.69
620,25400,12893.48
621,25404,12914.28
622,25404,12935.08
623,25404,12955.87
624,25408,12976.67
625,25408,12997.46
626,25404,13018.26
627,25396,13039.06
628,25392,13059.85
629,25388,13080.65
630,25388,13101.44
631,25388,13122.24
632,25388,13143.04
633,25384,13163.83
634,25388,13184.63
635,25396,13205.42
636,25392,13226.22
637,25396,13247.01
638,25404,13267.81
639,25404,13288.61
640,25404,13309.40
641,25404,13330.20
642,25408,13350.99
643,25400,13371.79
644,25380,13392.59
645,25352,13413.38
646,25328,13434.18
647,25304,13454.97
648,25280,13475.77
649,25276,13496.57
650,25272,13517.36
651,25276,13538.16
652,25272,13558.95
653,25272,13579.75
654,25272,13600.55
655,25272,13621.34
656,25268,13642.14
657,25268,13662.93
658,25260,13683.73
659,25256,13704.53
660,25252,13725.32
661,25244,13746.12
662,25244,13766.91
663,25240,13787.71
664,25240,13808.51
665,25244,13829.30
666,25248,13850.10
667,25252,13870.89
668,25256,13891.69
669,25260,13912.48
670,25264,13933.28
671,25264,13954.08
672,25272,13974.87
673,25272,13995.67
674,25276,14016.46
675,25280,14037.26
676,25280,14058.06
677,25268,14078.85
678,25240,14099.65
679,25208,14120.44
680,25176,14141.24
681,25148,14162.04
682,25136,14182.83
683,25128,14203.63
684,25128,14224.42
685,25132,14245.22
686,25136,14266.02
687,25144,14286.81
688,25148,14307.61
689,25152,14328.40
690,25152,14349.20
691,25144,14370.00
692,25140,14390.79
693,25136,14411.59
694,25128,14432.38
695,25124,14453.18
696,25116,14473.98
697,25116,14494.77
698,25120,14515.57
699,25124,14536.36
700,25128,14557.16
701,25132,14577.96
702,25132,14598.75
703,25136,14619.55
704,25140,14640.34
705,25144,14661.14
706,25148,14681.93
707,25148,14702.73
708,25156,14723.53
709,25156,14744.32
710,25164,14765.12
711,25168,14785.91
712,25164,14806.71
713,25148,14827.51
714,25120,14848.30
715,25080,14869.10
716,25052,14889.89
717,25032,14910.69
718,25020,14931.49
719,25020,14952.28
720,25024,14973.08
721,25028,14993.87
722,25036,15014.67
723,25044,15035.47
724,25044,15056.26
725,25048,15077.06
726,25048,15097.85
727,25044,15118.65
728,25036,15139.45
729,25028,15160.24
730,25024,15181.04
731,25024,15201.83
732,25024,15222.63
733,25024,15243.43
734,25024,15264.22
735,25028,15285.02
736,25032,15305.81
737,25040,15326.61
738,25036,15347.40
739,25044,15368.20
740,25044,15389.00
741,25048,15409.79
742,25056,15430.59
743,25060,15451.38
744,25060,15472.18
745,25064,15492.98
746,25068,15513.77
747,25068,15534.57
748,25064,15555.36
749,25044,15576.16
750,25012,15596.96
751,24968,15617.75
752,24936,15638.55
753,24916,15659.34
754,24900,15680.14
755,24900,15700.94
756,24900,15721.73
757,24904,15742.53
758,24908,15763.32
759,24916,15784.12
760,24920,15804.92
761,24920,15825.71
762,24924,15846.51
763,24924,15867.30
764,24920,15888.10
765,24916,15908.90
766,24912,15929.69
767,24912,15950.49
768,24916,15971.28
769,24916,15992.08
770,24916,16012.88
771,24928,16033.67
772,24932,16054.47
773,24940,16075.26
774,24944,16096.06
775,24952,16116.85
776,24956,16137.65
777,24968,16158.45
778,24968,16179.24
779,24972,16200.04
780,24976,16220.83
781,24980,16241.63
782,24980,16262.43
783,24984,16283.22
784,24988,16304.02
785,24996,16324.81
786,25004,16345.61
787,25008,16366.41
788,25012,16387.20
789,25008,16408.00
790,24992,16428.79
791,24956,16449.59
792,24912,16470.39
793,24872,16491.18
794,24836,16511.98
795,24816,16532.77
796,24808,16553.57
797,24812,16574.37
798,24812,16595.16
799,24816,16615.96
800,24820,16636.75
801,24828,16657.55
802,24832,16678.35
803,24832,16699.14
804,24832,16719.94
805,24832,16740.73
806,24824,16761.53
807,24820,16782.32
808,24820,16803.12
809,24820,16823.92
810,24820,16844.71
811,24824,16865.51
812,24828,16886.30
813,24836,16907.10
814,24844,16927.90
815,24856,16948.69
816,24860,16969.49
817,24868,16990.28
818,24880,17011.08
819,24884,17031.88
820,24888,17052.67
821,24892,17073.47
822,24900,17094.26
823,24896,17115.06
824,24900,17135.86
825,24904,17156.65
826,24912,17177.45
827,24912,17198.24
828,24904,17219.04
829,24880,17239.84
830,24836,17260.63
831,24792,17281.43
832,24752,17302.22
833,24724,17323.02
834,24716,17343.82
835,24712,17364.61
836,24716,17385.41
837,24724,17406.20
838,24732,17427.00
839,24744,17447.80
840,24748,17468.59
841,24756,17489.39
842,24748,17510.18
843,24744,17530.98
844,24736,17551.77
845,24728,17572.57
846,24724,17593.37
847,24724,17614.16
848,24728,17634.96
849,24724,17655.75
850,24732,17676.55
851,24740,17697.35
852,24744,17718.14
853,24752,17738.94
854,24756,17759.73
855,24764,17780.53
856,24776,17801.33
857,24784,17822.12
858,24796,17842.92
859,24804,17863.71
860,24808,17884.51
861,24812,17905.31
862,24820,17926.10
863,24820,17946.90
864,24808,17967.69
865,24768,17988.49
866,24716,18009.29
867,24660,18030.08
868,24616,18050.88
869,24588,18071.67
870,24576,18092.47
871,24576,18113.27
872,24576,18134.06
873,24584,18154.86
874,24596,18175.65
875,24600,18196.45
876,24608,18217.24
877,24612,18238.04
878,24616,18258.84
879,24616,18279.63
880,24612,18300.43
881,24612,18321.22
882,24612,18342.02
883,24612,18362.82
884,24616,18383.61
885,24620,18404.41
886,24632,18425.20
887,24640,18446.00
888,24652,18466.80
889,24664,18487.59
890,24676,18508.39
891,24688,18529.18
892,24700,18549.98
893,24712,18570.78
894,24724,18591.57
895,24736,18612.37
896,24744,18633.16
897,24748,18653.96
898,24760,18674.76
899,24768,18695.55
900,24776,18716.35
901,24784,18737.14
902,24784,18757.94
903,24756,18778.74
904,24712,18799.53
905,24656,18820.33
906,24592,18841.12
907,24548,18861.92
908,24516,18882.72
909,24508,18903.51
910,24508,18924.31
911,24508,18945.10
912,24516,18965.90
913,24528,18986.69
914,24532,19007.49
915,24540,19028.29
916,24544,19049.08
917,24544,19069.88
918,24544,19090.67
919,24536,19111.47
920,24532,19132.27
921,24532,19153.06
922,24532,19173.86
923,24540,19194.65
924,24548,19215.45
925,24556,19236.25
926,24568,19257.04
927,24580,19277.84
928,24592,19298.63
929,24604,19319.43
930,24616,19340.23
931,24624,19361.02
932,24636,19381.82
933,24644,19402.61
934,24656,19423.41
935,24668,19444.21
936,24672,19465.00
937,24656,19485.80
938,24616,19506.59
939,24564,19527.39
940,24504,19548.19
941,24460,19568.98
942,24432,19589.78
943,24424,19610.57
944,24428,19631.37
945,24440,19652.16
946,24452,19672.96
947,24464,19693.76
948,24476,19714.55
949,24488,19735.35
950,24492,19756.14
951,24488,19776.94
952,24484,19797.74
953,24476,19818.53
954,24472,19839.33
955,24468,19860.12
956,24472,19880.92
957,24476,19901.72
958,24488,19922.51
959,24496,19943.31
960,24512,19964.10
961,24524,19984.90
962,24536,20005.70
963,24548,20026.49
964,24556,20047.29
965,24564,20068.08
966,24576,20088.88
967,24588,20109.68
968,24596,20130.47
969,24608,20151.27
970,24616,20172.06
971,24604,20192.86
972,24572,20213.66
973,24512,20234.45
974,24448,20255.25
975,24396,20276.04
976,24360,20296.84
977,24344,20317.64
978,24340,20338.43
979,24348,20359.23
980,24352,20380.02
981,24368,20400.82
982,24380,20421.61
983,24396,20442.41
984,24404,20463.21
985,24412,20484.00
986,24412,20504.80
987,24412,20525.59
988,24412,20546.39
989,24408,20567.19
990,24412,20587.98
991,24424,20608.78
992,24432,20629.57
993,24444,20650.37
994,24456,20671.17
995,24472,20691.96
996,24484,20712.76
997,24496,20733.55
998,24508,20754.35
999,24520,20775.15
1000,24532,20795.94
1001,24540,20816.74
1002,24552,20837.53
1003,24560,20858.33
1004,24572,20879.13
1005,24584,20899.92
1006,24596,20920.72
1007,24604,20941.51
1008,24612,20962.31
1009,24620,20983.11
1010,24632,21003.90
1011,24640,21024.70
1012,24640,21045.49
1013,24608,21066.29
1014,24548,21087.08
1015,24476,21107.88
1016,24412,21128.68
1017,24360,21149.47
1018,24336,21170.27
1019,24328,21191.06
1020,24332,21211.86
1021,24336,21232.66
1022,24348,21253.45
1023,24360,21274.25
1024,24372,21295.04
1025,24380,21315.84
1026,24388,21336.64
1027,24396,21357.43
1028,24396,21378.23
1029,24392,21399.02
1030,24388,21419.82
1031,24384,21440.62
1032,24388,21461.41
1033,24396,21482.21
1034,24412,21503.00
1035,24428,21523.80
1036,24436,21544.60
1037,24452,21565.39
1038,24468,21586.19
1039,24480,21606.98
1040,24488,21627.78
1041,24504,21648.58
1042,24512,21669.37
1043,24524,21690.17
1044,24528,21710.96
1045,24536,21731.76
1046,24544,21752.55
1047,24552,21773.35
1048,24560,21794.15
1049,24568,21814.94
1050,24576,21835.74
1051,24584,21856.53
1052,24596,21877.33
1053,24588,21898.13
1054,24564,21918.92
1055,24508,21939.72
1056,24436,21960.51
1057,24364,21981.31
1058,24320,22002.11
1059,24296,22022.90
1060,24288,22043.70
1061,24292,22064.49
1062,24304,22085.29
1063,24316,22106.09
1064,24332,22126.88
1065,24348,22147.68
1066,24364,22168.47
1067,24368,22189.27
1068,24372,22210.07
1069,24372,22230.86
1070,24368,22251.66
1071,24368,22272.45
1072,24368,22293.25
1073,24372,22314.05
1074,24384,22334.84
1075,24392,22355.64
1076,24404,22376.43
1077,24420,22397.23
1078,24440,22418.03
1079,24452,22438.82
1080,24468,22459.62
1081,24480,22480.41
1082,24496,22501.21
1083,24504,22522.00
1084,24516,22542.80
1085,24524,22563.60
1086,24532,22584.39
1087,24540,22605.19
1088,24552,22625.98
1089,24560,22646.78
1090,24564,22667.58
1091,24576,22688.37
1092,24588,22709.17
1093,24600,22729.96
1094,24608,22750.76
1095,24616,22771.56
1096,24624,22792.35
1097,24616,22813.15
1098,24580,22833.94
1099,24512,22854.74
1100,24432,22875.54
1101,24352,22896.33
1102,24300,22917.13
1103,24276,22937.92
1104,24268,22958.72
1105,24268,22979.52
1106,24276,23000.31
1107,24284,23021.11
1108,24292,23041.90
1109,24308,23062.70
1110,24324,23083.50
1111,24332,23104.29
1112,24336,23125.09
1113,24332,23145.88
1114,24332,23166.68
1115,24328,23187.47
1116,24328,23208.27
1117,24332,23229.07
1118,24336,23249.86
1119,24344,23270.66
1120,24364,23291.45
1121,24380,23312.25
1122,24392,23333.05
1123,24412,23353.84
1124,24428,23374.64
1125,24440,23395.43
1126,24460,23416.23
1127,24468,23437.03
1128,24480,23457.82
1129,24488,23478.62
1130,24500,23499.41
1131,24508,23520.21
1132,24516,23541.01
1133,24528,23561.80
1134,24540,23582.60
1135,24548,23603.39
1136,24556,23624.19
1137,24568,23644.99
1138,24576,23665.78
1139,24588,23686.58
1140,24600,23707.37
1141,24608,23728.17
1142,24624,23748.97
1143,24632,23769.76
1144,24620,23790.56
1145,24572,23811.35
1146,24504,23832.15
1147,24424,23852.95
1148,24364,23873.74
1149,24324,23894.54
1150,24308,23915.33
1151,24308,23936.13
1152,24320,23956.92
1153,24336,23977.72
1154,24352,23998.52
1155,24372,24019.31
1156,24384,24040.11
1157,24396,24060.90
1158,24396,24081.70
1159,24396,24102.50
1160,24384,24123.29
1161,24376,24144.09
1162,24368,24164.88
1163,24372,24185.68
1164,24380,24206.48
1165,24384,24227.27
1166,24396,24248.07
1167,24408,24268.86
1168,24416,24289.66
1169,24428,24310.46
1170,24440,24331.25
1171,24448,24352.05
1172,24460,24372.84
1173,24468,24393.64
1174,24480,24414.44
1175,24484,24435.23
1176,24492,24456.03
1177,24504,24476.82
1178,24512,24497.62
1179,24524,24518.42
1180,24532,24539.21
1181,24536,24560.01
1182,24544,24580.80
1183,24556,24601.60
1184,24556,24622.39
1185,24528,24643.19
1186,24472,24663.99
1187,24396,24684.78
1188,24320,24705.58
1189,24256,24726.37
1190,24220,24747.17
1191,24208,24767.97
1192,24212,24788.76
1193,24224,24809.56
1194,24236,24830.35
1195,24256,24851.15
1196,24276,24871.95
1197,24288,24892.74
1198,24300,24913.54
1199,24312,24934.33
1200,24308,24955.13
1201,24304,24975.93
1202,24296,24996.72
1203,24296,25017.52
1204,24296,25038.31
1205,24300,25059.11
1206,24308,25079.91
1207,24324,25100.70
1208,24340,25121.50
1209,24356,25142.29
1210,24372,25163.09
1211,24392,25183.89
1212,24408,25204.68
1213,24424,25225.48
1214,24436,25246.27
1215,24448,25267.07
1216,24456,25287.87
1217,24464,25308.66
1218,24472,25329.46
1219,24476,25350.25
1220,24484,25371.05
1221,24488,25391.84
1222,24500,25412.64
1223,24512,25433.44
1224,24520,25454.23
1225,24520,25475.03
1226,24492,25495.82
1227,24432,25516.62
1228,24344,25537.42
1229,24264,25558.21
1230,24196,25579.01
1231,24164,25599.80
1232,24156,25620.60
1233,24160,25641.40
1234,24172,25662.19
1235,24188,25682.99
1236,24204,25703.78
1237,24228,25724.58
1238,24244,25745.38
1239,24264,25766.17
1240,24268,25786.97
1241,24268,25807.76
1242,24260,25828.56
1243,24260,25849.36
1244,24256,25870.15
1245,24256,25890.95
1246,24260,25911.74
1247,24268,25932.54
1248,24280,25953.34
1249,24300,25974.13
1250,24316,25994.93
1251,24336,26015.72
1252,24352,26036.52
1253,24368,26057.31
1254,24384,26078.11
1255,24396,26098.91
1256,24408,26119.70
1257,24416,26140.50
1258,24420,26161.29
1259,24420,26182.09
1260,24424,26202.89
1261,24428,26223.68
1262,24436,26244.48
1263,24444,26265.27
1264,24432,26286.07
1265,24388,26306.87
1266,24316,26327.66
1267,24228,26348.46
1268,24148,26369.25
1269,24092,26390.05
1270,24064,26410.85
1271,24056,26431.64
1272,24060,26452.44
1273,24072,26473.23
1274,24084,26494.03
1275,24100,26514.83
1276,24120,26535.62
1277,24140,26556.42
1278,24156,26577.21
1279,24168,26598.01
1280,24172,26618.81
1281,24172,26639.60
1282,24168,26660.40
1283,24176,26681.19
1284,24180,26701.99
1285,24188,26722.79
1286,24208,26743.58
1287,24228,26764.38
1288,24248,26785.17
1289,24268,26805.97
1290,24288,26826.76
1291,24308,26847.56
1292,24324,26868.36
1293,24340,26889.15
1294,24356,26909.95
1295,24372,26930.74
1296,24388,26951.54
1297,24404,26972.34
1298,24416,26993.13
1299,24428,27013.93
1300,24444,27034.72
1301,24452,27055.52
1302,24428,27076.32
1303,24372,27097.11
1304,24292,27117.91
1305,24208,27138.70
1306,24144,27159.50
1307,24112,27180.30
1308,24104,27201.09
1309,24104,27221.89
1310,24120,27242.68
1311,24136,27263.48
1312,24152,27284.28
1313,24172,27305.07
1314,24188,27325.87
1315,24208,27346.66
1316,24216,27367.46
1317,24224,27388.26
1318,24232,27409.05
1319,24236,27429.85
1320,24240,27450.64
1321,24244,27471.44
1322,24256,27492.23
1323,24272,27513.03
1324,24284,27533.83
1325,24308,27554.62
1326,24332,27575.42
1327,24348,27596.21
1328,24364,27617.01
1329,24388,27637.81
1330,24416,27658.60
1331,24436,27679.40
1332,24456,27700.19
1333,24476,27720.99
1334,24488,27741.79
1335,24504,27762.58
1336,24520,27783.38
1337,24532,27804.17
1338,24552,27824.97
1339,24568,27845.77
1340,24580,27866.56
1341,24564,27887.36
1342,24520,27908.15
1343,24456,27928.95
1344,24384,27949.75
1345,24328,27970.54
1346,24292,27991.34
1347,24276,28012.13
1348,24280,28032.93
1349,24292,28053.73
1350,24308,28074.52
1351,24328,28095.32
1352,24348,28116.11
1353,24368,28136.91
1354,24392,28157.71
1355,24400,28178.50
1356,24408,28199.30
1357,24412,28220.09
1358,24412,28240.89
1359,24408,28261.68
1360,24416,28282.48
1361,24424,28303.28
1362,24440,28324.07
1363,24456,28344.87
1364,24472,28365.66
1365,24492,28386.46
1366,24512,28407.26
1367,24532,28428.05
1368,24548,28448.85
1369,24564,28469.64
1370,24580,28490.44
1371,24596,28511.24
1372,24608,28532.03
1373,24628,28552.83
1374,24644,28573.62
1375,24652,28594.42
1376,24648,28615.22
1377,24616,28636.01
1378,24572,28656.81
1379,24524,28677.60
1380,24488,28698.40
1381,24468,28719.20
1382,24464,28739.99
1383,24472,28760.79
1384,24484,28781.58
1385,24504,28802.38
1386,24520,28823.18
1387,24540,28843.97
1388,24556,28864.77
1389,24564,28885.56
1390,24572,28906.36
1391,24572,28927.15
1392,24576,28947.95
1393,24572,28968.75
1394,24576,28989.54
1395,24580,29010.34
1396,24592,29031.13
1397,24604,29051.93
1398,24616,29072.73
1399,24628,29093.52
1400,24640,29114.32
1401,24652,29135.11
1402,24664,29155.91
1403,24676,29176.71
1404,24688,29197.50
1405,24704,29218.30
1406,24720,29239.09
1407,24732,29259.89
1408,24740,29280.69
1409,24720,29301.48
1410,24684,29322.28
1411,24648,29343.07
1412,24620,29363.87
1413,24596,29384.67
1414,24592,29405.46
1415,24596,29426.26
1416,24608,29447.05
1417,24624,29467.85
1418,24636,29488.65
1419,24656,29509.44
1420,24668,29530.24
1421,24680,29551.03
1422,24688,29571.83
1423,24692,29592.62
1424,24692,29613.42
1425,24688,29634.22
1426,24692,29655.01
1427,24696,29675.81
1428,24700,29696.60
1429,24708,29717.40
1430,24720,29738.20
1431,24728,29758.99
1432,24740,29779.79
1433,24744,29800.58
1434,24756,29821.38
1435,24764,29842.18
1436,24768,29862.97
1437,24780,29883.77
1438,24792,29904.56
1439,24800,29925.36
1440,24808,29946.16
1441,24816,29966.95
1442,24796,29987.75
1443,24764,30008.54
1444,24728,30029.34
1445,24696,30050.14
1446,24680,30070.93
1447,24672,30091.73
1448,24680,30112.52
1449,24688,30133.32
1450,24704,30154.12
1451,24716,30174.91
1452,24728,30195.71
1453,24744,30216.50
1454,24756,30237.30
1455,24760,30258.10
1456,24760,30278.89
1457,24760,30299.69
1458,24764,30320.48
1459,24764,30341.28
1460,24764,30362.07
1461,24768,30382.87
1462,24776,30403.67
1463,24788,30424.46
1464,24796,30445.26
1465,24804,30466.05
1466,24812,30486.85
1467,24820,30507.65
1468,24828,30528.44
1469,24836,30549.24
1470,24848,30570.03
1471,24856,30590.83
1472,24864,30611.63
1473,24872,30632.42
1474,24864,30653.22
1475,24840,30674.01
1476,24812,30694.81
1477,24788,30715.61
1478,24768,30736.40
1479,24760,30757.20
1480,24760,30777.99
1481,24764,30798.79
1482,24776,30819.59
1483,24784,30840.38
1484,24796,30861.18
1485,24808,30881.97
1486,24816,30902.77
1487,24816,30923.57
1488,24816,30944.36
1489,24812,30965.16
1490,24808,30985.95
1491,24804,31006.75
1492,24804,31027.54
1493,24808,31048.34
1494,24816,31069.14
1495,24824,31089.93
1496,24840,31110.73
1497,24848,31131.52
1498,24856,31152.32
1499,24864,31173.12
1500,24872,31193.91
1501,24884,31214.71
1502,24888,31235.50
1503,24904,31256.30
1504,24904,31277.10
1505,24892,31297.89
1506,24872,31318.69
1507,24840,31339.48
1508,24820,31360.28
1509,24804,31381.08
1510,24808,31401.87
1511,24808,31422.67
1512,24816,31443.46
1513,24828,31464.26
1514,24844,31485.06
1515,24856,31505.85
1516,24864,31526.65
1517,24872,31547.44
1518,24876,31568.24
1519,24872,31589.04
1520,24872,31609.83
1521,24872,31630.63
1522,24868,31651.42
1523,24872,31672.22
1524,24872,31693.02
1525,24876,31713.81
1526,24884,31734.61
1527,24892,31755.40
1528,24896,31776.20
1529,24900,31796.99
1530,24908,31817.79
1531,24912,31838.59
1532,24920,31859.38
1533,24928,31880.18
1534,24936,31900.97
1535,24940,31921.77
1536,24928,31942.57
1537,24904,31963.36
1538,24880,31984.16
1539,24860,32004.95
1540,24848,32025.75
1541,24848,32046.55
1542,24856,32067.34
1543,24864,32088.14
1544,24868,32108.93
1545,24884,32129.73
1546,24892,32150.53
1547,24904,32171.32
1548,24912,32192.12
1549,24920,32212.91
1550,24924,32233.71
1551,24924,32254.51
1552,24924,32275.30
1553,24924,32296.10
1554,24924,32316.89
1555,24932,32337.69
1556,24936,32358.49
1557,24940,32379.28
1558,24944,32400.08
1559,24952,32420.87
1560,24960,32441.67
1561,24968,32462.46
1562,24976,32483.26
1563,24980,32504.06
1564,24988,32524.85
1565,24996,32545.65
1566,24992,32566.44
1567,24972,32587.24
1568,24948,32608.04
1569,24920,32628.83
1570,24904,32649.63
1571,24896,32670.42
1572,24896,32691.22
1573,24900,32712.02
1574,24908,32732.81
1575,24916,32753.61
1576,24924,32774.40
1577,24936,32795.20
1578,24940,32816.00
1579,24944,32836.79
1580,24944,32857.59
1581,24944,32878.38
1582,24944,32899.18
1583,24944,32919.98
1584,24944,32940.77
1585,24948,32961.57
1586,24952,32982.36
1587,24960,33003.16
1588,24960,33023.96
1589,24968,33044.75
1590,24976,33065.55
1591,24980,33086.34
1592,24992,33107.14
1593,24996,33127.94
1594,25004,33148.73
1595,25008,33169.53
1596,24992,33190.32
1597,24968,33211.12
1598,24944,33231.91
1599,24928,33252.71
1600,24916,33273.51
1601,24912,33294.30
1602,24920,33315.10
1603,24928,33335.89
1604,24936,33356.69
1605,24944,33377.49
1606,24952,33398.28
1607,24956,33419.08
1608,24956,33439.87
1609,24956,33460.67
1610,24952,33481.47
1611,24944,33502.26
1612,24944,33523.06
1613,24940,33543.85
1614,24944,33564.65
1615,24944,33585.45
1616,24952,33606.24
1617,24952,33627.04
1618,24956,33647.83
1619,24960,33668.63
1620,24964,33689.43
1621,24968,33710.22
1622,24976,33731.02
1623,24976,33751.81
1624,24964,33772.61
1625,24944,33793.41
1626,24916,33814.20
1627,24888,33835.00
1628,24872,33855.79
1629,24860,33876.59
1630,24860,33897.38
1631,24860,33918.18
1632,24868,33938.98
1633,24876,33959.77
1634,24884,33980.57
1635,24892,34001.36
1636,24896,34022.16
1637,24900,34042.96
1638,24892,34063.75
1639,24892,34084.55
1640,24888,34105.34
1641,24888,34126.14
1642,24888,34146.94
1643,24888,34167.73
1644,24888,34188.53
1645,24892,34209.32
1646,24896,34230.12
1647,24908,34250.92
1648,24912,34271.71
1649,24920,34292.51
1650,24920,34313.30
1651,24932,34334.10
1652,24928,34354.90
1653,24912,34375.69
1654,24876,34396.49
1655,24832,34417.28
1656,24796,34438.08
1657,24768,34458.88
1658,24748,34479.67
1659,24736,34500.47
1660,24740,34521.26
1661,24744,34542.06
1662,24748,34562.86
1663,24756,34583.65
1664,24764,34604.45
1665,24760,34625.24
1666,24756,34646.04
1667,24752,34666.83
1668,24744,34687.63
1669,24744,34708.43
1670,24740,34729.22
1671,24740,34750.02
1672,24744,34770.81
1673,24748,34791.61
1674,24752,34812.41
1675,24756,34833.20
1676,24764,34854.00
1677,24772,34874.79
1678,24780,34895.59
1679,24788,34916.39
1680,24796,34937.18
1681,24796,34957.98
1682,24768,34978.77
1683,24728,34999.57
1684,24684,35020.37
1685,24644,35041.16
1686,24612,35061.96
1687,24600,35082.75
1688,24596,35103.55
1689,24596,35124.35
1690,24604,35145.14
1691,24612,35165.94
1692,24624,35186.73
1693,24628,35207.53
1694,24632,35228.33
1695,24632,35249.12
1696,24628,35269.92
1697,24616,35290.71
1698,24612,35311.51
1699,24604,35332.30
1700,24604,35353.10
1701,24604,35373.90
1702,24612,35394.69
1703,24616,35415.49
1704,24624,35436.28
1705,24636,35457.08
1706,24644,35477.88
1707,24644,35498.67
1708,24652,35519.47
1709,24644,35540.26
1710,24612,35561.06
1711,24572,35581.86
1712,24524,35602.65
1713,24480,35623.45
1714,24460,35644.24
1715,24448,35665.04
1716,24452,35685.84
1717,24456,35706.63
1718,24472,35727.43
1719,24484,35748.22
1720,24500,35769.02
1721,24504,35789.82
1722,24512,35810.61
1723,24512,35831.41
1724,24512,35852.20
1725,24516,35873.00
1726,24512,35893.80
1727,24516,35914.59
1728,24516,35935.39
1729,24524,35956.18
1730,24536,35976.98
1731,24544,35997.78
1732,24552,36018.57
1733,24568,36039.37
1734,24580,36060.16
1735,24592,36080.96
1736,24596,36101.75
1737,24584,36122.55
1738,24540,36143.35
1739,24488,36164.14
1740,24424,36184.94
1741,24376,36205.73
1742,24356,36226.53
1743,24348,36247.33
1744,24352,36268.12
1745,24364,36288.92
1746,24376,36309.71
1747,24396,36330.51
1748,24412,36351.31
1749,24420,36372.10
1750,24428,36392.90
1751,24428,36413.69
1752,24428,36434.49
1753,24424,36455.29
1754,24428,36476.08
1755,24432,36496.88
1756,24440,36517.67
1757,24448,36538.47
1758,24464,36559.27
1759,24476,36580.06
1760,24488,36600.86
1761,24504,36621.65
1762,24516,36642.45
1763,24528,36663.25
1764,24544,36684.04
1765,24560,36704.84
1766,24572,36725.63
1767,24572,36746.43
1768,24544,36767.22
1769,24488,36788.02
1770,24420,36808.82
1771,24364,36829.61
1772,24328,36850.41
1773,24316,36871.20
1774,24316,36892.00
1775,24328,36912.80
1776,24348,36933.59
1777,24364,36954.39
1778,24376,36975.18
1779,24392,36995.98
1780,24408,37016.78
1781,24416,37037.57
1782,24416,37058.37
1783,24416,37079.16
1784,24412,37099.96
1785,24412,37120.76
1786,24420,37141.55
1787,24428,37162.35
1788,24440,37183.14
1789,24452,37203.94
1790,24464,37224.74
1791,24472,37245.53
1792,24488,37266.33
1793,24504,37287.12
1794,24520,37307.92
1795,24532,37328.72
1796,24544,37349.51
1797,24560,37370.31
1798,24572,37391.10
1799,24584,37411.90
1800,24596,37432.69
1801,24588,37453.49
1802,24560,37474.29
1803,24496,37495.08
1804,24428,37515.88
1805,24360,37536.67
1806,24328,37557.47
1807,24316,37578.27
1808,24316,37599.06
1809,24332,37619.86
1810,24344,37640.65
1811,24364,37661.45
1812,24376,37682.25
1813,24396,37703.04
1814,24404,37723.84
1815,24412,37744.63
1816,24412,37765.43
1817,24408,37786.23
1818,24400,37807.02
1819,24404,37827.82
1820,24400,37848.61
1821,24404,37869.41
1822,24412,37890.21
1823,24420,37911.00
1824,24424,37931.80
1825,24440,37952.59
1826,24448,37973.39
1827,24460,37994.19
1828,24472,38014.98
1829,24488,38035.78
1830,24500,38056.57
1831,24512,38077.37
1832,24524,38098.17
1833,24504,38118.96
1834,24456,38139.76
1835,24388,38160.55
1836,24320,38181.35
1837,24272,38202.14
1838,24248,38222.94
1839,24248,38243.74
1840,24256,38264.53
1841,24276,38285.33
1842,24300,38306.12
1843,24320,38326.92
1844,24344,38347.72
1845,24360,38368.51
1846,24368,38389.31
1847,24372,38410.10
1848,24372,38430.90
1849,24368,38451.70
1850,24372,38472.49
1851,24372,38493.29
1852,24384,38514.08
1853,24392,38534.88
1854,24404,38555.68
1855,24420,38576.47
1856,24436,38597.27
1857,24448,38618.06
1858,24464,38638.86
1859,24480,38659.66
1860,24496,38680.45
1861,24512,38701.25
1862,24528,38722.04
1863,24544,38742.84
1864,24552,38763.64
1865,24564,38784.43
1866,24568,38805.23
1867,24548,38826.02
1868,24488,38846.82
1869,24404,38867.61
1870,24312,38888.41
1871,24252,38909.21
1872,24220,38930.00
1873,24216,38950.80
1874,24220,38971.59
1875,24236,38992.39
1876,24256,39013.19
1877,24276,39033.98
1878,24296,39054.78
1879,24308,39075.57
1880,24324,39096.37
1881,24332,39117.17
1882,24336,39137.96
1883,24336,39158.76
1884,24336,39179.55
1885,24336,39200.35
1886,24340,39221.15
1887,24348,39241.94
1888,24360,39262.74
1889,24376,39283.53
1890,24392,39304.33
1891,24412,39325.13
1892,24428,39345.92
1893,24448,39366.72
1894,24464,39387.51
1895,24484,39408.31
1896,24504,39429.11
1897,24512,39449.90
1898,24528,39470.70
1899,24540,39491.49
1900,24552,39512.29
1901,24556,39533.09
1902,24536,39553.88
1903,24476,39574.68
1904,24400,39595.47
1905,24320,39616.27
1906,24264,39637.06
1907,24228,39657.86
1908,24228,39678.66
1909,24240,39699.45
1910,24252,39720.25
1911,24268,39741.04
1912,24292,39761.84
1913,24308,39782.64
1914,24328,39803.43
1915,24340,39824.23
1916,24348,39845.02
1917,24348,39865.82
1918,24344,39886.62
1919,24336,39907.41
1920,24336,39928.21
1921,24340,39949.00
1922,24340,39969.80
1923,24352,39990.60
1924,24364,40011.39
1925,24380,40032.19
1926,24400,40052.98
1927,24412,40073.78
1928,24428,40094.58
1929,24440,40115.37
1930,24460,40136.17
1931,24472,40156.96
1932,24488,40177.76
1933,24500,40198.56
1934,24500,40219.35
1935,24468,40240.15
1936,24404,40260.94
1937,24328,40281.74
1938,24260,40302.53
1939,24220,40323.33
1940,24204,40344.13
1941,24212,40364.92
1942,24224,40385.72
1943,24240,40406.51
1944,24268,40427.31
1945,24296,40448.11
1946,24316,40468.90
1947,24332,40489.70
1948,24344,40510.49
1949,24344,40531.29
1950,24340,40552.09
1951,24336,40572.88
1952,24336,40593.68
1953,24340,40614.47
1954,24344,40635.27
1955,24352,40656.07
1956,24364,40676.86
1957,24380,40697.66
1958,24396,40718.45
1959,24416,40739.25
1960,24432,40760.05
1961,24444,40780.84
1962,24456,40801.64
1963,24468,40822.43
1964,24484,40843.23
1965,24500,40864.03
1966,24512,40884.82
1967,24508,40905.62
1968,24464,40926.41
1969,24388,40947.21
1970,24300,40968.01
1971,24224,40988.80
1972,24176,41009.60
1973,24160,41030.39
1974,24164,41051.19
1975,24180,41071.98
1976,24204,41092.78
1977,24228,41113.58
1978,24252,41134.37
1979,24276,41155.17
1980,24292,41175.96
1981,24304,41196.76
1982,24312,41217.56
1983,24316,41238.35
1984,24312,41259.15
1985,24312,41279.94
1986,24316,41300.74
1987,24324,41321.54
1988,24336,41342.33
1989,24348,41363.13
1990,24364,41383.92
1991,24380,41404.72
1992,24396,41425.52
1993,24416,41446.31
1994,24428,41467.11
1995,24440,41487.90
1996,24456,41508.70
1997,24468,41529.50
1998,24484,41550.29
1999,24496,41571.09
2000,24508,41591.88
2001,24528,41612.68
2002,24528,41633.48
2003,24496,41654.27
2004,24416,41675.07
2005,24324,41695.86
2006,24232,41716.66
2007,24172,41737.45
2008,24148,41758.25
2009,24148,41779.05
2010,24160,41799.84
2011,24180,41820.64
2012,24204,41841.43
2013,24228,41862.23
2014,24252,41883.03
2015,24280,41903.82
2016,24292,41924.62
2017,24304,41945.41
2018,24308,41966.21
2019,24308,41987.01
2020,24308,42007.80
2021,24308,42028.60
2022,24316,42049.39
2023,24324,42070.19
2024,24332,42090.99
2025,24348,42111.78
2026,24364,42132.58
2027,24380,42153.37
2028,24400,42174.17
2029,24420,42194.97
2030,24436,42215.76
2031,24456,42236.56
2032,24468,42257.35
2033,24484,42278.15
2034,24492,42298.95
2035,24508,42319.74
2036,24504,42340.54
2037,24460,42361.33
2038,24392,42382.13
2039,24296,42402.93
2040,24216,42423.72
2041,24168,42444.52
2042,24144,42465.31
2043,24148,42486.11
2044,24164,42506.90
2045,24180,42527.70
2046,24208,42548.50
2047,24232,42569.29
2048,24260,42590.09
2049,24280,42610.88
2050,24296,42631.68
2051,24300,42652.48
2052,24304,42673.27
2053,24296,42694.07
2054,24296,42714.86
2055,24292,42735.66
2056,24300,42756.46
2057,24304,42777.25
2058,24320,42798.05
2059,24328,42818.84
2060,24344,42839.64
2061,24364,42860.44
2062,24384,42881.23
2063,24404,42902.03
2064,24424,42922.82
2065,24436,42943.62
2066,24456,42964.42
2067,24472,42985.21
2068,24488,43006.01
2069,24472,43026.80
2070,24420,43047.60
2071,24332,43068.40
2072,24236,43089.19
2073,24160,43109.99
2074,24116,43130.78
2075,24104,43151.58
2076,24112,43172.37
2077,24132,43193.17
2078,24152,43213.97
2079,24176,43234.76
2080,24208,43255.56
2081,24228,43276.35
2082,24248,43297.15
2083,24256,43317.95
2084,24264,43338.74
2085,24264,43359.54
2086,24260,43380.33
2087,24256,43401.13
2088,24260,43421.93
2089,24268,43442.72
2090,24280,43463.52
2091,24292,43484.31
2092,24308,43505.11
2093,24328,43525.91
2094,24348,43546.70
2095,24368,43567.50
2096,24388,43588.29
2097,24404,43609.09
2098,24420,43629.89
2099,24440,43650.68
2100,24456,43671.48
2101,24472,43692.27
2102,24484,43713.07
2103,24492,43733.87
2104,24468,43754.66
2105,24396,43775.46
2106,24292,43796.25
2107,24188,43817.05
2108,24112,43837.85
2109,24076,43858.64
2110,24064,43879.44
2111,24076,43900.23
2112,24100,43921.03
2113,24128,43941.82
2114,24156,43962.62
2115,24188,43983.42
2116,24216,44004.21
2117,24232,44025.01
2118,24244,44045.80
2119,24244,44066.60
2120,24244,44087.40
2121,24236,44108.19
2122,24232,44128.99
2123,24232,44149.78
2124,24240,44170.58
2125,24248,44191.38
2126,24260,44212.17
2127,24280,44232.97
2128,24296,44253.76
2129,24316,44274.56
2130,24332,44295.36
2131,24352,44316.15
2132,24368,44336.95
2133,24384,44357.74
2134,24400,44378.54
2135,24416,44399.34
2136,24432,44420.13
2137,24444,44440.93
2138,24436,44461.72
2139,24380,44482.52
2140,24288,44503.32
2141,24188,44524.11
2142,24104,44544.91
2143,24060,44565.70
2144,24040,44586.50
2145,24048,44607.29
2146,24072,44628.09
2147,24100,44648.89
2148,24136,44669.68
2149,24164,44690.48
2150,24192,44711.27
2151,24216,44732.07
2152,24220,44752.87
2153,24224,44773.66
2154,24220,44794.46
2155,24212,44815.25
2156,24212,44836.05
2157,24212,44856.85
2158,24216,44877.64
2159,24228,44898.44
2160,24240,44919.23
2161,24256,44940.03
2162,24272,44960.83
2163,24288,44981.62
2164,24304,45002.42
2165,24316,45023.21
2166,24328,45044.01
2167,24340,45064.81
2168,24356,45085.60
2169,24368,45106.40
2170,24380,45127.19
2171,24388,45147.99
2172,24372,45168.79
2173,24312,45189.58
2174,24220,45210.38
2175,24112,45231.17
2176,24028,45251.97
2177,23980,45272.77
2178,23968,45293.56
2179,23976,45314.36
2180,24004,45335.15
2181,24036,45355.95
2182,24064,45376.74
2183,24096,45397.54
2184,24124,45418.34
2185,24140,45439.13
2186,24156,45459.93
2187,24164,45480.72
2188,24164,45501.52
2189,24160,45522.32
2190,24156,45543.11
2191,24164,45563.91
2192,24172,45584.70
2193,24188,45605.50
2194,24200,45626.30
2195,24220,45647.09
2196,24240,45667.89
2197,24260,45688.68
2198,24276,45709.48
2199,24300,45730.28
2200,24320,45751.07
2201,24336,45771.87
2202,24352,45792.66
2203,24368,45813.46
2204,24384,45834.26
2205,24396,45855.05
2206,24404,45875.85
2207,24416,45896.64
2208,24424,45917.44
2209,24396,45938.24
2210,24320,45959.03
2211,24208,45979.83
2212,24096,46000.62
2213,24008,46021.42
2214,23960,46042.21
2215,23944,46063.01
2216,23952,46083.81
2217,23972,46104.60
2218,23996,46125.40
2219,24024,46146.19
2220,24056,46166.99
2221,24084,46187.79
2222,24104,46208.58
2223,24120,46229.38
2224,24124,46250.17
2225,24128,46270.97
2226,24124,46291.77
2227,24124,46312.56
2228,24128,46333.36
2229,24136,46354.15
2230,24152,46374.95
2231,24168,46395.75
2232,24188,46416.54
2233,24212,46437.34
2234,24232,46458.13
2235,24256,46478.93
2236,24276,46499.73
2237,24300,46520.52
2238,24312,46541.32
2239,24332,46562.11
2240,24348,46582.91
2241,24364,46603.71
2242,24380,46624.50
2243,24396,46645.30
2244,24408,46666.09
2245,24424,46686.89
2246,24428,46707.68
2247,24396,46728.48
2248,24312,46749.28
2249,24200,46770.07
2250,24092,46790.87
2251,24012,46811.66
2252,23968,46832.46
2253,23960,46853.26
2254,23972,46874.05
2255,24000,46894.85
2256,24028,46915.64
2257,24060,46936.44
2258,24092,46957.24
2259,24116,46978.03
2260,24136,46998.83
2261,24144,47019.62
2262,24144,47040.42
2263,24136,47061.22
2264,24132,47082.01
2265,24128,47102.81
2266,24132,47123.60
2267,24144,47144.40
2268,24156,47165.20
2269,24172,47185.99
2270,24192,47206.79
2271,24216,47227.58
2272,24232,47248.38
2273,24256,47269.18
2274,24276,47289.97
2275,24292,47310.77
2276,24304,47331.56
2277,24328,47352.36
2278,24340,47373.16
2279,24352,47393.95
2280,24368,47414.75
2281,24384,47435.54
2282,24376,47456.34
2283,24324,47477.13
2284,24228,47497.93
2285,24120,47518.73
2286,24024,47539.52
2287,23964,47560.32
2288,23944,47581.11
2289,23944,47601.91
2290,23968,47622.71
2291,23992,47643.50
2292,24024,47664.30
2293,24052,47685.09
2294,24080,47705.89
2295,24100,47726.69
2296,24108,47747.48
2297,24112,47768.28
2298,24108,47789.07
2299,24104,47809.87
2300,24104,47830.67
2301,24104,47851.46
2302,24112,47872.26
2303,24124,47893.05
2304,24136,47913.85
2305,24156,47934.65
2306,24176,47955.44
2307,24192,47976.24
2308,24216,47997.03
2309,24232,48017.83
2310,24252,48038.63
2311,24272,48059.42
2312,24292,48080.22
2313,24308,48101.01
2314,24328,48121.81
2315,24340,48142.60
2316,24360,48163.40
2317,24340,48184.20
2318,24276,48204.99
2319,24168,48225.79
2320,24052,48246.58
2321,23956,48267.38
2322,23904,48288.18
2323,23888,48308.97
2324,23900,48329.77
2325,23920,48350.56
2326,23952,48371.36
2327,23984,48392.16
2328,24016,48412.95
2329,24044,48433.75
2330,24072,48454.54
2331,24084,48475.34
2332,24088,48496.14
2333,24088,48516.93
2334,24084,48537.73
2335,24080,48558.52
2336,24084,48579.32
2337,24084,48600.12
2338,24096,48620.91
2339,24112,48641.71
2340,24128,48662.50
2341,24144,48683.30
2342,24168,48704.10
2343,24188,48724.89
2344,24212,48745.69
2345,24228,48766.48
2346,24252,48787.28
2347,24268,48808.08
2348,24280,48828.87
2349,24296,48849.67
2350,24312,48870.46
2351,24332,48891.26
2352,24344,48912.05
2353,24324,48932.85
2354,24252,48953.65
2355,24144,48974.44
2356,24020,48995.24
2357,23928,49016.03
2358,23876,49036.83
2359,23864,49057.63
2360,23872,49078.42
2361,23900,49099.22
2362,23932,49120.01
2363,23968,49140.81
2364,24000,49161.61
2365,24036,49182.40
2366,24056,49203.20
2367,24064,49223.99
2368,24072,49244.79
2369,24068,49265.59
2370,24060,49286.38
2371,24060,49307.18
2372,24060,49327.97
2373,24064,49348.77
2374,24080,49369.57
2375,24100,49390.36
2376,24116,49411.16
2377,24136,49431.95
2378,24156,49452.75
2379,24176,49473.55
2380,24200,49494.34
2381,24216,49515.14
2382,24232,49535.93
2383,24244,49556.73
2384,24264,49577.52
2385,24280,49598.32
2386,24296,49619.12
2387,24304,49639.91
2388,24284,49660.71
2389,24216,49681.50
2390,24116,49702.30
2391,24008,49723.10
2392,23924,49743.89
2393,23880,49764.69
2394,23872,49785.48
2395,23892,49806.28
2396,23916,49827.08
2397,23952,49847.87
2398,23988,49868.67
2399,24020,49889.46
2400,24048,49910.26
2401,24068,49931.06
2402,24076,49951.85
2403,24076,49972.65
2404,24068,49993.44
2405,24064,50014.24
2406,24064,50035.04
2407,24068,50055.83
2408,24076,50076.63
2409,24088,50097.42
2410,24100,50118.22
2411,24120,50139.02
2412,24132,50159.81
2413,24152,50180.61
2414,24168,50201.40
2415,24184,50222.20
2416,24200,50243.00
2417,24212,50263.79
2418,24232,50284.59
2419,24244,50305.38
2420,24264,50326.18
2421,24256,50346.97
2422,24196,50367.77
2423,24100,50388.57
2424,23988,50409.36
2425,23900,50430.16
2426,23848,50450.95
2427,23836,50471.75
2428,23852,50492.55
2429,23872,50513.34
2430,23904,50534.14
2431,23936,50554.93
2432,23972,50575.73
2433,23996,50596.53
2434,24016,50617.32
2435,24028,50638.12
2436,24032,50658.91
2437,24032,50679.71
2438,24028,50700.51
2439,24028,50721.30
2440,24036,50742.10
2441,24044,50762.89
2442,24060,50783.69
2443,24076,50804.49
2444,24100,50825.28
2445,24116,50846.08
2446,24136,50866.87
2447,24160,50887.67
2448,24176,50908.47
2449,24204,50929.26
2450,24216,50950.06
2451,24240,50970.85
2452,24252,50991.65
2453,24268,51012.44
2454,24280,51033.24
2455,24260,51054.04
2456,24196,51074.83
2457,24084,51095.63
2458,23968,51116.42
2459,23884,51137.22
2460,23836,51158.02
2461,23820,51178.81
2462,23832,51199.61
2463,23852,51220.40
2464,23880,51241.20
2465,23912,51262.00
2466,23936,51282.79
2467,23960,51303.59
2468,23976,51324.38
2469,23988,51345.18
2470,23992,51365.98
2471,23992,51386.77
2472,23992,51407.57
2473,23988,51428.36
2474,23992,51449.16
2475,24004,51469.96
2476,24020,51490.75
2477,24036,51511.55
2478,24056,51532.34
2479,24076,51553.14
2480,24100,51573.94
2481,24120,51594.73
2482,24148,51615.53
2483,24168,51636.32
2484,24188,51657.12
2485,24204,51677.92
2486,24224,51698.71
2487,24244,51719.51
2488,24256,51740.30
2489,24272,51761.10
2490,24280,51781.89
2491,24256,51802.69
2492,24180,51823.49
2493,24068,51844.28
2494,23948,51865.08
2495,23864,51885.87
2496,23824,51906.67
2497,23816,51927.47
2498,23832,51948.26
2499,23860,51969.06
2500,23888,51989.85
2501,23920,52010.65
2502,23948,52031.45
2503,23976,52052.24
2504,23996,52073.04
2505,24004,52093.83
2506,24004,52114.63
2507,23996,52135.43
2508,23992,52156.22
2509,23988,52177.02
2510,23988,52197.81
2511,23996,52218.61
2512,24012,52239.41
2513,24028,52260.20
2514,24048,52281.00
2515,24068,52301.79
2516,24088,52322.59
2517,24108,52343.39
2518,24128,52364.18
2519,24152,52384.98
2520,24168,52405.77
2521,24184,52426.57
2522,24204,52447.36
2523,24216,52468.16
2524,24236,52488.96
2525,24244,52509.75
2526,24220,52530.55
2527,24140,52551.34
2528,24028,52572.14
2529,23920,52592.94
2530,23836,52613.73
2531,23792,52634.53
2532,23792,52655.32
2533,23804,52676.12
2534,23832,52696.92
2535,23856,52717.71
2536,23888,52738.51
2537,23912,52759.30
2538,23936,52780.10
2539,23948,52800.90
2540,23956,52821.69
2541,23956,52842.49
2542,23952,52863.28
2543,23952,52884.08
2544,23956,52904.88
2545,23960,52925.67
2546,23968,52946.47
2547,23988,52967.26
2548,24004,52988.06
2549,24020,53008.86
2550,24036,53029.65
2551,24060,53050.45
2552,24080,53071.24
2553,24100,53092.04
2554,24120,53112.84
2555,24136,53133.63
2556,24156,53154.43
2557,24172,53175.22
2558,24192,53196.02
2559,24196,53216.81
2560,24180,53237.61
2561,24104,53258.41
2562,23988,53279.20
2563,23872,53300.00
2564,23788,53320.79
2565,23748,53341.59
2566,23748,53362.39
2567,23760,53383.18
2568,23788,53403.98
2569,23816,53424.77
2570,23848,53445.57
2571,23880,53466.37
2572,23912,53487.16
2573,23936,53507.96
2574,23948,53528.75
2575,23952,53549.55
2576,23956,53570.35
2577,23956,53591.14
2578,23956,53611.94
2579,23960,53632.73
2580,23968,53653.53
2581,23988,53674.33
2582,24004,53695.12
2583,24024,53715.92
2584,24044,53736.71
2585,24068,53757.51
2586,24088,53778.31
2587,24112,53799.10
2588,24136,53819.90
2589,24152,53840.69
2590,24168,53861.49
2591,24188,53882.28
2592,24204,53903.08
2593,24220,53923.88
2594,24236,53944.67
2595,24236,53965.47
2596,24188,53986.26
2597,24092,54007.06
2598,23968,54027.86
2599,23860,54048.65
2600,23788,54069.45
2601,23756,54090.24
2602,23760,54111.04
2603,23772,54131.84
2604,23804,54152.63
2605,23832,54173.43
2606,23868,54194.22
2607,23900,54215.02
2608,23928,54235.82
2609,23948,54256.61
2610,23960,54277.41
2611,23960,54298.20
2612,23960,54319.00
2613,23952,54339.80
2614,23952,54360.59
2615,23956,54381.39
2616,23968,54402.18
2617,23984,54422.98
2618,24000,54443.78
2619,24028,54464.57
2620,24048,54485.37
2621,24072,54506.16
2622,24100,54526.96
2623,24120,54547.75
2624,24140,54568.55
2625,24156,54589.35
2626,24172,54610.14
2627,24192,54630.94
2628,24208,54651.73
2629,24224,54672.53
2630,24216,54693.33
2631,24164,54714.12
2632,24060,54734.92
2633,23944,54755.71
2634,23848,54776.51
2635,23792,54797.31
2636,23772,54818.10
2637,23776,54838.90
2638,23804,54859.69
2639,23832,54880.49
2640,23868,54901.29
2641,23908,54922.08
2642,23944,54942.88
2643,23964,54963.67
2644,23976,54984.47
2645,23976,55005.27
2646,23968,55026.06
2647,23960,55046.86
2648,23952,55067.65
2649,23948,55088.45
2650,23956,55109.25
2651,23964,55130.04
2652,23976,55150.84
2653,23996,55171.63
2654,24012,55192.43
2655,24032,55213.23
2656,24048,55234.02
2657,24068,55254.82
2658,24092,55275.61
2659,24108,55296.41
2660,24132,55317.20
2661,24152,55338.00
2662,24172,55358.80
2663,24176,55379.59
2664,24124,55400.39
2665,24024,55421.18
2666,23908,55441.98
2667,23812,55462.78
2668,23752,55483.57
2669,23732,55504.37
2670,23744,55525.16
2671,23772,55545.96
2672,23800,55566.76
2673,23840,55587.55
2674,23876,55608.35
2675,23912,55629.14
2676,23936,55649.94
2677,23948,55670.74
2678,23952,55691.53
2679,23952,55712.33
2680,23944,55733.12
2681,23944,55753.92
2682,23944,55774.72
2683,23956,55795.51
2684,23968,55816.31
2685,23988,55837.10
2686,24008,55857.90
2687,24028,55878.70
2688,24052,55899.49
2689,24072,55920.29
2690,24096,55941.08
2691,24116,55961.88
2692,24136,55982.67
2693,24160,56003.47
2694,24180,56024.27
2695,24200,56045.06
2696,24216,56065.86
2697,24200,56086.65
2698,24132,56107.45
2699,24028,56128.25
2700,23912,56149.04
2701,23820,56169.84
2702,23768,56190.63
2703,23752,56211.43
2704,23768,56232.23
2705,23792,56253.02
2706,23828,56273.82
2707,23864,56294.61
2708,23900,56315.41
2709,23932,56336.21
2710,23956,56357.00
2711,23968,56377.80
2712,23972,56398.59
2713,23976,56419.39
2714,23968,56440.19
2715,23976,56460.98
2716,23980,56481.78
2717,23996,56502.57
2718,24008,56523.37
2719,24024,56544.17
2720,24044,56564.96
2721,24060,56585.76
2722,24084,56606.55
2723,24100,56627.35
2724,24120,56648.15
2725,24140,56668.94
2726,24156,56689.74
2727,24176,56710.53
2728,24196,56731.33
2729,24212,56752.12
2730,24228,56772.92
2731,24204,56793.72
2732,24140,56814.51
2733,24028,56835.31
2734,23912,56856.10
2735,23828,56876.90
2736,23780,56897.70
2737,23772,56918.49
2738,23784,56939.29
2739,23812,56960.08
2740,23848,56980.88
2741,23888,57001.68
2742,23928,57022.47
2743,23956,57043.27
2744,23980,57064.06
2745,23992,57084.86
2746,23992,57105.66
2747,23984,57126.45
2748,23980,57147.25
2749,23976,57168.04
2750,23980,57188.84
2751,23996,57209.64
2752,24008,57230.43
2753,24024,57251.23
2754,24044,57272.02
2755,24064,57292.82
2756,24084,57313.62
2757,24108,57334.41
2758,24124,57355.21
2759,24144,57376.00
2760,24164,57396.80
2761,24184,57417.59
2762,24200,57438.39
2763,24184,57459.19
2764,24120,57479.98
2765,24020,57500.78
2766,23904,57521.57
2767,23812,57542.37
2768,23752,57563.17
2769,23740,57583.96
2770,23748,57604.76
2771,23768,57625.55
2772,23796,57646.35
2773,23832,57667.15
2774,23868,57687.94
2775,23900,57708.74
2776,23924,57729.53
2777,23936,57750.33
2778,23936,57771.13
2779,23932,57791.92
2780,23928,57812.72
2781,23928,57833.51
2782,23936,57854.31
2783,23944,57875.11
2784,23960,57895.90
2785,23980,57916.70
2786,24000,57937.49
2787,24016,57958.29
2788,24040,57979.09
2789,24060,57999.88
2790,24080,58020.68
2791,24104,58041.47
2792,24128,58062.27
2793,24148,58083.07
2794,24168,58103.86
2795,24156,58124.66
2796,24092,58145.45
2797,23984,58166.25
2798,23864,58187.04
2799,23764,58207.84
2800,23712,58228.64
2801,23696,58249.43
2802,23708,58270.23
2803,23736,58291.02
2804,23768,58311.82
2805,23804,58332.62
2806,23844,58353.41
2807,23876,58374.21
2808,23900,58395.00
2809,23908,58415.80
2810,23912,58436.60
2811,23908,58457.39
2812,23900,58478.19
2813,23900,58498.98
2814,23900,58519.78
2815,23908,58540.58
2816,23924,58561.37
2817,23944,58582.17
2818,23964,58602.96
2819,23980,58623.76
2820,24004,58644.56
2821,24024,58665.35
2822,24044,58686.15
2823,24064,58706.94
2824,24088,58727.74
2825,24108,58748.54
2826,24132,58769.33
2827,24128,58790.13
2828,24072,58810.92
2829,23972,58831.72
2830,23852,58852.51
2831,23748,58873.31
2832,23684,58894.11
2833,23664,58914.90
2834,23672,58935.70
2835,23696,58956.49
2836,23724,58977.29
2837,23768,58998.09
2838,23804,59018.88
2839,23840,59039.68
2840,23864,59060.47
2841,23880,59081.27
2842,23884,59102.07
2843,23888,59122.86
2844,23880,59143.66
2845,23876,59164.45
2846,23880,59185.25
2847,23888,59206.05
2848,23900,59226.84
2849,23920,59247.64
2850,23940,59268.43
2851,23960,59289.23
2852,23980,59310.03
2853,24004,59330.82
2854,24024,59351.62
2855,24040,59372.41
2856,24060,59393.21
2857,24080,59414.01
2858,24092,59434.80
2859,24080,59455.60
2860,24016,59476.39
2861,23912,59497.19
2862,23792,59517.99
2863,23700,59538.78
2864,23652,59559.58
2865,23636,59580.37
2866,23648,59601.17
2867,23676,59621.96
2868,23712,59642.76
2869,23756,59663.56
2870,23800,59684.35
2871,23832,59705.15
2872,23852,59725.94
2873,23864,59746.74
2874,23864,59767.54
2875,23860,59788.33
2876,23852,59809.13
2877,23848,59829.92
2878,23852,59850.72
2879,23860,59871.52
2880,23876,59892.31
2881,23892,59913.11
2882,23916,59933.90
2883,23936,59954.70
2884,23956,59975.50
2885,23972,59996.29
2886,23988,60017.09
2887,24000,60037.88
2888,24016,60058.68
2889,24032,60079.48
2890,24024,60100.27
2891,23976,60121.07
2892,23872,60141.86
2893,23756,60162.66
2894,23664,60183.46
2895,23604,60204.25
2896,23580,60225.05
2897,23584,60245.84
2898,23604,60266.64
2899,23640,60287.43
2900,23680,60308.23
2901,23720,60329.03
2902,23760,60349.82
2903,23788,60370.62
2904,23800,60391.41
2905,23808,60412.21
2906,23804,60433.01
2907,23804,60453.80
2908,23808,60474.60
2909,23808,60495.39
2910,23824,60516.19
2911,23844,60536.99
2912,23864,60557.78
2913,23884,60578.58
2914,23908,60599.37
2915,23932,60620.17
2916,23956,60640.97
2917,23980,60661.76
2918,24000,60682.56
2919,24024,60703.35
2920,24044,60724.15
2921,24068,60744.95
2922,24084,60765.74
2923,24056,60786.54
2924,23968,60807.33
2925,23844,60828.13
2926,23720,60848.93
2927,23632,60869.72
2928,23588,60890.52
2929,23572,60911.31
2930,23584,60932.11
2931,23608,60952.91
2932,23648,60973.70
2933,23684,60994.50
2934,23728,61015.29
2935,23760,61036.09
2936,23788,61056.88
2937,23800,61077.68
2938,23808,61098.48
2939,23804,61119.27
2940,23804,61140.07
2941,23804,61160.86
2942,23812,61181.66
2943,23824,61202.46
2944,23844,61223.25
2945,23868,61244.05
2946,23884,61264.84
2947,23912,61285.64
2948,23936,61306.44
2949,23964,61327.23
2950,23988,61348.03
2951,24008,61368.82
2952,24032,61389.62
2953,24048,61410.42
2954,24064,61431.21
2955,24076,61452.01
2956,24096,61472.80
2957,24116,61493.60
2958,24128,61514.40
2959,24100,61535.19
2960,24012,61555.99
2961,23884,61576.78
2962,23756,61597.58
2963,23660,61618.38
2964,23616,61639.17
2965,23600,61659.97
2966,23612,61680.76
2967,23640,61701.56
2968,23680,61722.35
2969,23728,61743.15
2970,23772,61763.95
2971,23804,61784.74
2972,23828,61805.54
2973,23840,61826.33
2974,23840,61847.13
2975,23836,61867.93
2976,23832,61888.72
2977,23828,61909.52
2978,23836,61930.31
2979,23844,61951.11
2980,23864,61971.91
2981,23884,61992.70
2982,23904,62013.50
2983,23932,62034.29
2984,23952,62055.09
2985,23976,62075.89
2986,23996,62096.68
2987,24016,62117.48
2988,24036,62138.27
2989,24052,62159.07
2990,24068,62179.87
2991,24084,62200.66
2992,24100,62221.46
2993,24112,62242.25
2994,24124,62263.05
2995,24092,62283.85
2996,24012,62304.64
2997,23884,62325.44
2998,23760,62346.23
2999,23664,62367.03
