Sample_Index,IR_Value,Timestamp_ms
0,21660,0.00
1,21800,20.76
2,22020,41.53
3,22204,62.29
4,22352,83.06
5,22452,103.82
6,22520,124.59
7,22540,145.35
8,22544,166.12
9,22560,186.88
10,22604,207.65
11,22672,228.41
12,22748,249.18
13,22824,269.94
14,22856,290.70
15,22812,311.47
16,22736,332.23
17,22632,353.00
18,22520,373.76
19,22420,394.53
20,22344,415.29
21,22300,436.06
22,22288,456.82
23,22292,477.59
24,22332,498.35
25,22356,519.12
26,22372,539.88
27,22376,560.65
28,22364,581.41
29,22344,602.17
30,22316,622.94
31,22296,643.70
32,22276,664.47
33,22268,685.23
34,22268,706.00
35,22276,726.76
36,22288,747.53
37,22288,768.29
38,22296,789.06
39,22292,809.82
40,22280,830.59
41,22264,851.35
42,22252,872.11
43,22240,892.88
44,22228,913.64
45,22228,934.41
46,22220,955.17
47,22216,975.94
48,22208,996.70
49,22204,1017.47
50,22208,1038.23
51,22180,1059.00
52,22112,1079.76
53,22008,1100.53
54,21916,1121.29
55,21836,1142.06
56,21780,1162.82
57,21736,1183.58
58,21716,1204.35
59,21704,1225.11
60,21700,1245.88
61,21708,1266.64
62,21728,1287.41
63,21748,1308.17
64,21772,1328.94
65,21780,1349.70
66,21784,1370.47
67,21788,1391.23
68,21796,1412.00
69,21796,1432.76
70,21800,1453.52
71,21804,1474.29
72,21808,1495.05
73,21820,1515.82
74,21836,1536.58
75,21848,1557.35
76,21876,1578.11
77,21904,1598.88
78,21932,1619.64
79,21952,1640.41
80,21980,1661.17
81,22008,1681.94
82,22048,1702.70
83,22080,1723.47
84,22116,1744.23
85,22140,1764.99
86,22132,1785.76
87,22088,1806.52
88,22036,1827.29
89,22000,1848.05
90,21984,1868.82
91,21996,1889.58
92,22020,1910.35
93,22056,1931.11
94,22088,1951.88
95,22116,1972.64
96,22152,1993.41
97,22192,2014.17
98,22228,2034.93
99,22252,2055.70
100,22268,2076.46
101,22280,2097.23
102,22296,2117.99
103,22316,2138.76
104,22348,2159.52
105,22388,2180.29
106,22432,2201.05
107,22480,2221.82
108,22524,2242.58
109,22572,2263.35
110,22616,2284.11
111,22664,2304.88
112,22708,2325.64
113,22744,2346.40
114,22776,2367.17
115,22808,2387.93
116,22832,2408.70
117,22856,2429.46
118,22860,2450.23
119,22812,2470.99
120,22720,2491.76
121,22604,2512.52
122,22476,2533.29
123,22328,2554.05
124,22176,2574.82
125,22056,2595.58
126,21980,2616.34
127,21944,2637.11
128,21932,2657.87
129,21948,2678.64
130,21996,2699.40
131,22060,2720.17
132,22132,2740.93
133,22196,2761.70
134,22248,2782.46
135,22288,2803.23
136,22328,2823.99
137,22372,2844.76
138,22412,2865.52
139,22452,2886.28
140,22492,2907.05
141,22524,2927.81
142,22560,2948.58
143,22608,2969.34
144,22668,2990.11
145,22716,3010.87
146,22764,3031.64
147,22808,3052.40
148,22848,3073.17
149,22888,3093.93
150,22924,3114.70
151,22948,3135.46
152,22956,3156.23
153,22932,3176.99
154,22904,3197.75
155,22876,3218.52
156,22856,3239.28
157,22848,3260.05
158,22856,3280.81
159,22864,3301.58
160,22884,3322.34
161,22904,3343.11
162,22928,3363.87
163,22948,3384.64
164,22976,3405.40
165,22992,3426.17
166,23004,3446.93
167,23008,3467.69
168,23020,3488.46
169,23028,3509.22
170,23036,3529.99
171,23052,3550.75
172,23064,3571.52
173,23084,3592.28
174,23096,3613.05
175,23116,3633.81
176,23132,3654.58
177,23148,3675.34
178,23164,3696.11
179,23180,3716.87
180,23196,3737.64
181,23212,3758.40
182,23228,3779.16
183,23240,3799.93
184,23248,3820.69
185,23236,3841.46
186,23212,3862.22
187,23176,3882.99
188,23132,3903.75
189,23104,3924.52
190,23088,3945.28
191,23080,3966.05
192,23080,3986.81
193,23080,4007.58
194,23084,4028.34
195,23092,4049.10
196,23100,4069.87
197,23108,4090.63
198,23120,4111.40
199,23128,4132.16
200,23132,4152.93
201,23136,4173.69
202,23136,4194.46
203,23140,4215.22
204,23148,4235.99
205,23156,4256.75
206,23160,4277.52
207,23172,4298.28
208,23184,4319.05
209,23192,4339.81
210,23212,4360.57
211,23220,4381.34
212,23232,4402.10
213,23244,4422.87
214,23248,4443.63
215,23260,4464.40
216,23264,4485.16
217,23272,4505.93
218,23284,4526.69
219,23292,4547.46
220,23300,4568.22
221,23296,4588.99
222,23272,4609.75
223,23232,4630.51
224,23196,4651.28
225,23172,4672.04
226,23152,4692.81
227,23148,4713.57
228,23152,4734.34
229,23152,4755.10
230,23156,4775.87
231,23160,4796.63
232,23168,4817.40
233,23180,4838.16
234,23184,4858.93
235,23192,4879.69
236,23192,4900.46
237,23196,4921.22
238,23200,4941.98
239,23200,4962.75
240,23204,4983.51
241,23208,5004.28
242,23216,5025.04
243,23224,5045.81
244,23232,5066.57
245,23240,5087.34
246,23252,5108.10
247,23264,5128.87
248,23276,5149.63
249,23280,5170.40
250,23288,5191.16
251,23296,5211.92
252,23300,5232.69
253,23308,5253.45
254,23312,5274.22
255,23324,5294.98
256,23324,5315.75
257,23332,5336.51
258,23340,5357.28
259,23348,5378.04
260,23356,5398.81
261,23340,5419.57
262,23312,5440.34
263,23284,5461.10
264,23252,5481.86
265,23236,5502.63
266,23232,5523.39
267,23232,5544.16
268,23240,5564.92
269,23240,5585.69
270,23244,5606.45
271,23248,5627.22
272,23256,5647.98
273,23268,5668.75
274,23268,5689.51
275,23272,5710.28
276,23268,5731.04
277,23272,5751.81
278,23272,5772.57
279,23272,5793.33
280,23276,5814.10
281,23280,5834.86
282,23284,5855.63
283,23292,5876.39
284,23300,5897.16
285,23308,5917.92
286,23316,5938.69
287,23324,5959.45
288,23332,5980.22
289,23336,6000.98
290,23340,6021.75
291,23344,6042.51
292,23352,6063.27
293,23356,6084.04
294,23360,6104.80
295,23364,6125.57
296,23344,6146.33
297,23324,6167.10
298,23300,6187.86
299,23284,6208.63
300,23272,6229.39
301,23268,6250.16
302,23272,6270.92
303,23276,6291.69
304,23280,6312.45
305,23288,6333.22
306,23292,6353.98
307,23304,6374.74
308,23308,6395.51
309,23312,6416.27
310,23312,6437.04
311,23308,6457.80
312,23304,6478.57
313,23304,6499.33
314,23304,6520.10
315,23312,6540.86
316,23316,6561.63
317,23324,6582.39
318,23328,6603.16
319,23340,6623.92
320,23348,6644.68
321,23356,6665.45
322,23360,6686.21
323,23368,6706.98
324,23368,6727.74
325,23376,6748.51
326,23380,6769.27
327,23384,6790.04
328,23384,6810.80
329,23364,6831.57
330,23340,6852.33
331,23312,6873.10
332,23292,6893.86
333,23276,6914.63
334,23268,6935.39
335,23272,6956.15
336,23272,6976.92
337,23280,6997.68
338,23280,7018.45
339,23284,7039.21
340,23296,7059.98
341,23296,7080.74
342,23296,7101.51
343,23296,7122.27
344,23284,7143.04
345,23284,7163.80
346,23280,7184.57
347,23280,7205.33
348,23284,7226.09
349,23296,7246.86
350,23304,7267.62
351,23308,7288.39
352,23312,7309.15
353,23320,7329.92
354,23328,7350.68
355,23332,7371.45
356,23336,7392.21
357,23348,7412.98
358,23356,7433.74
359,23368,7454.51
360,23376,7475.27
361,23384,7496.04
362,23368,7516.80
363,23336,7537.56
364,23304,7558.33
365,23272,7579.09
366,23248,7599.86
367,23236,7620.62
368,23236,7641.39
369,23236,7662.15
370,23244,7682.92
371,23240,7703.68
372,23244,7724.45
373,23248,7745.21
374,23252,7765.98
375,23252,7786.74
376,23248,7807.50
377,23248,7828.27
378,23244,7849.03
379,23240,7869.80
380,23236,7890.56
381,23232,7911.33
382,23236,7932.09
383,23240,7952.86
384,23244,7973.62
385,23252,7994.39
386,23256,8015.15
387,23264,8035.92
388,23276,8056.68
389,23284,8077.44
390,23296,8098.21
391,23308,8118.97
392,23316,8139.74
393,23328,8160.50
394,23332,8181.27
395,23344,8202.03
396,23356,8222.80
397,23364,8243.56
398,23372,8264.33
399,23384,8285.09
400,23392,8305.86
401,23404,8326.62
402,23396,8347.39
403,23372,8368.15
404,23344,8388.91
405,23312,8409.68
406,23300,8430.44
407,23292,8451.21
408,23284,8471.97
409,23296,8492.74
410,23300,8513.50
411,23304,8534.27
412,23308,8555.03
413,23308,8575.80
414,23316,8596.56
415,23320,8617.33
416,23320,8638.09
417,23324,8658.85
418,23328,8679.62
419,23324,8700.38
420,23328,8721.15
421,23328,8741.91
422,23336,8762.68
423,23340,8783.44
424,23348,8804.21
425,23352,8824.97
426,23364,8845.74
427,23372,8866.50
428,23384,8887.27
429,23392,8908.03
430,23400,8928.80
431,23408,8949.56
432,23416,8970.32
433,23428,8991.09
434,23436,9011.85
435,23444,9032.62
436,23452,9053.38
437,23464,9074.15
438,23472,9094.91
439,23480,9115.68
440,23472,9136.44
441,23460,9157.21
442,23440,9177.97
443,23424,9198.74
444,23416,9219.50
445,23420,9240.26
446,23424,9261.03
447,23432,9281.79
448,23436,9302.56
449,23440,9323.32
450,23448,9344.09
451,23452,9364.85
452,23456,9385.62
453,23460,9406.38
454,23464,9427.15
455,23460,9447.91
456,23460,9468.68
457,23464,9489.44
458,23464,9510.21
459,23464,9530.97
460,23472,9551.73
461,23476,9572.50
462,23484,9593.26
463,23492,9614.03
464,23504,9634.79
465,23508,9655.56
466,23516,9676.32
467,23528,9697.09
468,23532,9717.85
469,23540,9738.62
470,23544,9759.38
471,23556,9780.15
472,23560,9800.91
473,23564,9821.67
474,23572,9842.44
475,23580,9863.20
476,23584,9883.97
477,23580,9904.73
478,23560,9925.50
479,23548,9946.26
480,23540,9967.03
481,23536,9987.79
482,23540,10008.56
483,23548,10029.32
484,23556,10050.09
485,23568,10070.85
486,23572,10091.62
487,23576,10112.38
488,23580,10133.14
489,23584,10153.91
490,23584,10174.67
491,23584,10195.44
492,23584,10216.20
493,23584,10236.97
494,23584,10257.73
495,23584,10278.50
496,23588,10299.26
497,23588,10320.03
498,23596,10340.79
499,23600,10361.56
500,23608,10382.32
501,23616,10403.08
502,23620,10423.85
503,23628,10444.61
504,23632,10465.38
505,23640,10486.14
506,23644,10506.91
507,23644,10527.67
508,23652,10548.44
509,23660,10569.20
510,23664,10589.97
511,23672,10610.73
512,23668,10631.50
513,23664,10652.26
514,23644,10673.02
515,23636,10693.79
516,23628,10714.55
517,23624,10735.32
518,23628,10756.08
519,23640,10776.85
520,23648,10797.61
521,23652,10818.38
522,23656,10839.14
523,23660,10859.91
524,23668,10880.67
525,23672,10901.44
526,23668,10922.20
527,23668,10942.97
528,23668,10963.73
529,23664,10984.49
530,23664,11005.26
531,23668,11026.02
532,23668,11046.79
533,23676,11067.55
534,23680,11088.32
535,23684,11109.08
536,23688,11129.85
537,23692,11150.61
538,23696,11171.38
539,23700,11192.14
540,23704,11212.91
541,23708,11233.67
542,23716,11254.43
543,23720,11275.20
544,23728,11295.96
545,23728,11316.73
546,23732,11337.49
547,23736,11358.26
548,23748,11379.02
549,23748,11399.79
550,23744,11420.55
551,23736,11441.32
552,23724,11462.08
553,23716,11482.85
554,23712,11503.61
555,23708,11524.38
556,23712,11545.14
557,23720,11565.90
558,23728,11586.67
559,23728,11607.43
560,23736,11628.20
561,23740,11648.96
562,23744,11669.73
563,23748,11690.49
564,23748,11711.26
565,23748,11732.02
566,23752,11752.79
567,23748,11773.55
568,23744,11794.32
569,23744,11815.08
570,23744,11835.84
571,23752,11856.61
572,23756,11877.37
573,23760,11898.14
574,23764,11918.90
575,23772,11939.67
576,23772,11960.43
577,23772,11981.20
578,23772,12001.96
579,23776,12022.73
580,23784,12043.49
581,23788,12064.26
582,23792,12085.02
583,23796,12105.79
584,23804,12126.55
585,23804,12147.31
586,23812,12168.08
587,23816,12188.84
588,23816,12209.61
589,23804,12230.37
590,23792,12251.14
591,23788,12271.90
592,23784,12292.67
593,23784,12313.43
594,23788,12334.20
595,23792,12354.96
596,23796,12375.73
597,23800,12396.49
598,23804,12417.25
599,23808,12438.02
600,23812,12458.78
601,23816,12479.55
602,23816,12500.31
603,23820,12521.08
604,23820,12541.84
605,23824,12562.61
606,23820,12583.37
607,23820,12604.14
608,23820,12624.90
609,23820,12645.67
610,23820,12666.43
611,23828,12687.20
612,23832,12707.96
613,23836,12728.72
614,23840,12749.49
615,23844,12770.25
616,23844,12791.02
617,23848,12811.78
618,23848,12832.55
619,23852,12853.31
620,23856,12874.08
621,23860,12894.84
622,23864,12915.61
623,23868,12936.37
624,23872,12957.14
625,23876,12977.90
626,23884,12998.66
627,23876,13019.43
628,23868,13040.19
629,23852,13060.96
630,23844,13081.72
631,23840,13102.49
632,23844,13123.25
633,23848,13144.02
634,23852,13164.78
635,23860,13185.55
636,23864,13206.31
637,23864,13227.08
638,23868,13247.84
639,23872,13268.60
640,23872,13289.37
641,23876,13310.13
642,23876,13330.90
643,23876,13351.66
644,23872,13372.43
645,23872,13393.19
646,23876,13413.96
647,23872,13434.72
648,23876,13455.49
649,23876,13476.25
650,23876,13497.02
651,23880,13517.78
652,23884,13538.55
653,23888,13559.31
654,23888,13580.07
655,23892,13600.84
656,23892,13621.60
657,23888,13642.37
658,23896,13663.13
659,23892,13683.90
660,23896,13704.66
661,23900,13725.43
662,23908,13746.19
663,23912,13766.96
664,23904,13787.72
665,23900,13808.49
666,23888,13829.25
667,23872,13850.01
668,23868,13870.78
669,23864,13891.54
670,23868,13912.31
671,23868,13933.07
672,23876,13953.84
673,23880,13974.60
674,23888,13995.37
675,23892,14016.13
676,23892,14036.90
677,23896,14057.66
678,23892,14078.43
679,23888,14099.19
680,23884,14119.96
681,23880,14140.72
682,23884,14161.48
683,23884,14182.25
684,23884,14203.01
685,23892,14223.78
686,23892,14244.54
687,23892,14265.31
688,23892,14286.07
689,23892,14306.84
690,23896,14327.60
691,23896,14348.37
692,23900,14369.13
693,23904,14389.90
694,23904,14410.66
695,23904,14431.42
696,23908,14452.19
697,23908,14472.95
698,23904,14493.72
699,23888,14514.48
700,23872,14535.25
701,23852,14556.01
702,23840,14576.78
703,23836,14597.54
704,23836,14618.31
705,23836,14639.07
706,23840,14659.84
707,23848,14680.60
708,23848,14701.37
709,23848,14722.13
710,23852,14742.89
711,23856,14763.66
712,23852,14784.42
713,23856,14805.19
714,23852,14825.95
715,23852,14846.72
716,23848,14867.48
717,23848,14888.25
718,23844,14909.01
719,23848,14929.78
720,23852,14950.54
721,23856,14971.31
722,23856,14992.07
723,23860,15012.83
724,23864,15033.60
725,23868,15054.36
726,23864,15075.13
727,23868,15095.89
728,23872,15116.66
729,23872,15137.42
730,23868,15158.19
731,23868,15178.95
732,23872,15199.72
733,23872,15220.48
734,23860,15241.25
735,23840,15262.01
736,23816,15282.78
737,23796,15303.54
738,23780,15324.30
739,23772,15345.07
740,23772,15365.83
741,23772,15386.60
742,23772,15407.36
743,23772,15428.13
744,23772,15448.89
745,23772,15469.66
746,23776,15490.42
747,23772,15511.19
748,23776,15531.95
749,23772,15552.72
750,23768,15573.48
751,23764,15594.24
752,23764,15615.01
753,23764,15635.77
754,23768,15656.54
755,23768,15677.30
756,23772,15698.07
757,23776,15718.83
758,23780,15739.60
759,23780,15760.36
760,23784,15781.13
761,23784,15801.89
762,23788,15822.66
763,23792,15843.42
764,23796,15864.18
765,23804,15884.95
766,23800,15905.71
767,23800,15926.48
768,23788,15947.24
769,23760,15968.01
770,23732,15988.77
771,23708,16009.54
772,23692,16030.30
773,23684,16051.07
774,23684,16071.83
775,23684,16092.60
776,23684,16113.36
777,23684,16134.13
778,23684,16154.89
779,23684,16175.65
780,23688,16196.42
781,23680,16217.18
782,23684,16237.95
783,23680,16258.71
784,23676,16279.48
785,23672,16300.24
786,23672,16321.01
787,23668,16341.77
788,23672,16362.54
789,23676,16383.30
790,23676,16404.07
791,23680,16424.83
792,23684,16445.59
793,23692,16466.36
794,23696,16487.12
795,23704,16507.89
796,23708,16528.65
797,23716,16549.42
798,23716,16570.18
799,23716,16590.95
800,23704,16611.71
801,23688,16632.48
802,23660,16653.24
803,23636,16674.01
804,23628,16694.77
805,23620,16715.54
806,23620,16736.30
807,23624,16757.06
808,23620,16777.83
809,23624,16798.59
810,23624,16819.36
811,23628,16840.12
812,23624,16860.89
813,23628,16881.65
814,23624,16902.42
815,23624,16923.18
816,23620,16943.95
817,23616,16964.71
818,23620,16985.48
819,23620,17006.24
820,23624,17027.00
821,23620,17047.77
822,23628,17068.53
823,23628,17089.30
824,23636,17110.06
825,23636,17130.83
826,23648,17151.59
827,23652,17172.36
828,23656,17193.12
829,23660,17213.89
830,23668,17234.65
831,23672,17255.42
832,23680,17276.18
833,23680,17296.95
834,23672,17317.71
835,23652,17338.47
836,23632,17359.24
837,23608,17380.00
838,23596,17400.77
839,23592,17421.53
840,23592,17442.30
841,23592,17463.06
842,23592,17483.83
843,23596,17504.59
844,23596,17525.36
845,23600,17546.12
846,23604,17566.89
847,23608,17587.65
848,23612,17608.41
849,23608,17629.18
850,23608,17649.94
851,23604,17670.71
852,23604,17691.47
853,23600,17712.24
854,23600,17733.00
855,23604,17753.77
856,23604,17774.53
857,23612,17795.30
858,23616,17816.06
859,23628,17836.83
860,23628,17857.59
861,23628,17878.36
862,23632,17899.12
863,23636,17919.88
864,23644,17940.65
865,23648,17961.41
866,23656,17982.18
867,23664,18002.94
868,23664,18023.71
869,23652,18044.47
870,23636,18065.24
871,23612,18086.00
872,23592,18106.77
873,23580,18127.53
874,23576,18148.30
875,23580,18169.06
876,23584,18189.82
877,23588,18210.59
878,23592,18231.35
879,23600,18252.12
880,23600,18272.88
881,23600,18293.65
882,23604,18314.41
883,23604,18335.18
884,23604,18355.94
885,23600,18376.71
886,23604,18397.47
887,23600,18418.24
888,23604,18439.00
889,23604,18459.76
890,23608,18480.53
891,23612,18501.29
892,23612,18522.06
893,23620,18542.82
894,23620,18563.59
895,23620,18584.35
896,23628,18605.12
897,23632,18625.88
898,23636,18646.65
899,23644,18667.41
900,23648,18688.18
901,23644,18708.94
902,23632,18729.71
903,23612,18750.47
904,23592,18771.23
905,23576,18792.00
906,23564,18812.76
907,23560,18833.53
908,23560,18854.29
909,23564,18875.06
910,23572,18895.82
911,23580,18916.59
912,23584,18937.35
913,23588,18958.12
914,23588,18978.88
915,23592,18999.65
916,23592,19020.41
917,23588,19041.17
918,23592,19061.94
919,23588,19082.70
920,23592,19103.47
921,23596,19124.23
922,23592,19145.00
923,23600,19165.76
924,23612,19186.53
925,23612,19207.29
926,23620,19228.06
927,23624,19248.82
928,23628,19269.59
929,23632,19290.35
930,23636,19311.12
931,23636,19331.88
932,23640,19352.64
933,23636,19373.41
934,23620,19394.17
935,23596,19414.94
936,23572,19435.70
937,23548,19456.47
938,23532,19477.23
939,23528,19498.00
940,23524,19518.76
941,23524,19539.53
942,23528,19560.29
943,23532,19581.06
944,23540,19601.82
945,23540,19622.58
946,23548,19643.35
947,23552,19664.11
948,23552,19684.88
949,23552,19705.64
950,23544,19726.41
951,23548,19747.17
952,23548,19767.94
953,23552,19788.70
954,23560,19809.47
955,23568,19830.23
956,23572,19851.00
957,23580,19871.76
958,23584,19892.53
959,23592,19913.29
960,23600,19934.05
961,23600,19954.82
962,23612,19975.58
963,23616,19996.35
964,23628,20017.11
965,23632,20037.88
966,23620,20058.64
967,23600,20079.41
968,23572,20100.17
969,23544,20120.94
970,23520,20141.70
971,23504,20162.47
972,23500,20183.23
973,23496,20203.99
974,23500,20224.76
975,23504,20245.52
976,23512,20266.29
977,23512,20287.05
978,23512,20307.82
979,23516,20328.58
980,23520,20349.35
981,23520,20370.11
982,23520,20390.88
983,23516,20411.64
984,23516,20432.41
985,23516,20453.17
986,23520,20473.94
987,23524,20494.70
988,23536,20515.46
989,23536,20536.23
990,23544,20556.99
991,23552,20577.76
992,23556,20598.52
993,23564,20619.29
994,23572,20640.05
995,23580,20660.82
996,23588,20681.58
997,23588,20702.35
998,23572,20723.11
999,23552,20743.88
1000,23524,20764.64
1001,23496,20785.40
1002,23480,20806.17
1003,23472,20826.93
1004,23472,20847.70
1005,23476,20868.46
1006,23480,20889.23
1007,23488,20909.99
1008,23492,20930.76
1009,23492,20951.52
1010,23496,20972.29
1011,23496,20993.05
1012,23492,21013.82
1013,23488,21034.58
1014,23484,21055.34
1015,23488,21076.11
1016,23484,21096.87
1017,23484,21117.64
1018,23492,21138.40
1019,23496,21159.17
1020,23500,21179.93
1021,23504,21200.70
1022,23512,21221.46
1023,23516,21242.23
1024,23524,21262.99
1025,23528,21283.76
1026,23536,21304.52
1027,23536,21325.29
1028,23532,21346.05
1029,23504,21366.81
1030,23472,21387.58
1031,23444,21408.34
1032,23424,21429.11
1033,23408,21449.87
1034,23408,21470.64
1035,23408,21491.40
1036,23412,21512.17
1037,23420,21532.93
1038,23432,21553.70
1039,23440,21574.46
1040,23444,21595.23
1041,23444,21615.99
1042,23448,21636.75
1043,23448,21657.52
1044,23448,21678.28
1045,23448,21699.05
1046,23448,21719.81
1047,23452,21740.58
1048,23456,21761.34
1049,23460,21782.11
1050,23468,21802.87
1051,23472,21823.64
1052,23480,21844.40
1053,23488,21865.17
1054,23488,21885.93
1055,23496,21906.70
1056,23500,21927.46
1057,23508,21948.22
1058,23512,21968.99
1059,23500,21989.75
1060,23476,22010.52
1061,23440,22031.28
1062,23404,22052.05
1063,23368,22072.81
1064,23344,22093.58
1065,23336,22114.34
1066,23336,22135.11
1067,23340,22155.87
1068,23348,22176.64
1069,23356,22197.40
1070,23364,22218.16
1071,23372,22238.93
1072,23380,22259.69
1073,23384,22280.46
1074,23384,22301.22
1075,23384,22321.99
1076,23384,22342.75
1077,23384,22363.52
1078,23392,22384.28
1079,23396,22405.05
1080,23408,22425.81
1081,23416,22446.58
1082,23420,22467.34
1083,23432,22488.11
1084,23440,22508.87
1085,23448,22529.63
1086,23456,22550.40
1087,23468,22571.16
1088,23476,22591.93
1089,23488,22612.69
1090,23492,22633.46
1091,23484,22654.22
1092,23460,22674.99
1093,23424,22695.75
1094,23380,22716.52
1095,23344,22737.28
1096,23320,22758.05
1097,23308,22778.81
1098,23304,22799.57
1099,23308,22820.34
1100,23316,22841.10
1101,23324,22861.87
1102,23332,22882.63
1103,23340,22903.40
1104,23344,22924.16
1105,23348,22944.93
1106,23348,22965.69
1107,23348,22986.46
1108,23344,23007.22
1109,23348,23027.99
1110,23344,23048.75
1111,23348,23069.52
1112,23356,23090.28
1113,23364,23111.04
1114,23376,23131.81
1115,23384,23152.57
1116,23396,23173.34
1117,23404,23194.10
1118,23416,23214.87
1119,23428,23235.63
1120,23440,23256.40
1121,23448,23277.16
1122,23448,23297.93
1123,23432,23318.69
1124,23396,23339.46
1125,23356,23360.22
1126,23316,23380.98
1127,23288,23401.75
1128,23276,23422.51
1129,23272,23443.28
1130,23280,23464.04
1131,23280,23484.81
1132,23292,23505.57
1133,23304,23526.34
1134,23308,23547.10
1135,23316,23567.87
1136,23312,23588.63
1137,23312,23609.40
1138,23308,23630.16
1139,23304,23650.92
1140,23304,23671.69
1141,23308,23692.45
1142,23312,23713.22
1143,23316,23733.98
1144,23324,23754.75
1145,23328,23775.51
1146,23340,23796.28
1147,23352,23817.04
1148,23360,23837.81
1149,23368,23858.57
1150,23384,23879.34
1151,23396,23900.10
1152,23408,23920.87
1153,23408,23941.63
1154,23384,23962.39
1155,23344,23983.16
1156,23300,24003.92
1157,23260,24024.69
1158,23232,24045.45
1159,23216,24066.22
1160,23216,24086.98
1161,23216,24107.75
1162,23228,24128.51
1163,23236,24149.28
1164,23248,24170.04
1165,23260,24190.81
1166,23272,24211.57
1167,23276,24232.33
1168,23276,24253.10
1169,23284,24273.86
1170,23280,24294.63
1171,23284,24315.39
1172,23284,24336.16
1173,23288,24356.92
1174,23296,24377.69
1175,23300,24398.45
1176,23312,24419.22
1177,23320,24439.98
1178,23328,24460.75
1179,23340,24481.51
1180,23348,24502.28
1181,23360,24523.04
1182,23372,24543.80
1183,23384,24564.57
1184,23396,24585.33
1185,23392,24606.10
1186,23364,24626.86
1187,23320,24647.63
1188,23268,24668.39
1189,23224,24689.16
1190,23192,24709.92
1191,23176,24730.69
1192,23168,24751.45
1193,23172,24772.22
1194,23180,24792.98
1195,23192,24813.74
1196,23204,24834.51
1197,23220,24855.27
1198,23232,24876.04
1199,23240,24896.80
1200,23244,24917.57
1201,23248,24938.33
1202,23248,24959.10
1203,23252,24979.86
1204,23256,25000.63
1205,23260,25021.39
1206,23268,25042.16
1207,23276,25062.92
1208,23288,25083.69
1209,23300,25104.45
1210,23312,25125.21
1211,23320,25145.98
1212,23336,25166.74
1213,23352,25187.51
1214,23364,25208.27
1215,23372,25229.04
1216,23380,25249.80
1217,23360,25270.57
1218,23316,25291.33
1219,23260,25312.10
1220,23216,25332.86
1221,23176,25353.63
1222,23160,25374.39
1223,23156,25395.15
1224,23160,25415.92
1225,23164,25436.68
1226,23176,25457.45
1227,23188,25478.21
1228,23200,25498.98
1229,23216,25519.74
1230,23216,25540.51
1231,23220,25561.27
1232,23220,25582.04
1233,23216,25602.80
1234,23220,25623.57
1235,23220,25644.33
1236,23224,25665.10
1237,23236,25685.86
1238,23240,25706.62
1239,23252,25727.39
1240,23264,25748.15
1241,23280,25768.92
1242,23296,25789.68
1243,23312,25810.45
1244,23324,25831.21
1245,23332,25851.98
1246,23320,25872.74
1247,23288,25893.51
1248,23236,25914.27
1249,23188,25935.04
1250,23148,25955.80
1251,23124,25976.56
1252,23112,25997.33
1253,23112,26018.09
1254,23116,26038.86
1255,23128,26059.62
1256,23136,26080.39
1257,23156,26101.15
1258,23168,26121.92
1259,23176,26142.68
1260,23180,26163.45
1261,23180,26184.21
1262,23176,26204.98
1263,23180,26225.74
1264,23184,26246.50
1265,23188,26267.27
1266,23200,26288.03
1267,23208,26308.80
1268,23216,26329.56
1269,23228,26350.33
1270,23244,26371.09
1271,23256,26391.86
1272,23272,26412.62
1273,23288,26433.39
1274,23304,26454.15
1275,23304,26474.92
1276,23276,26495.68
1277,23228,26516.45
1278,23176,26537.21
1279,23124,26557.97
1280,23084,26578.74
1281,23060,26599.50
1282,23052,26620.27
1283,23048,26641.03
1284,23060,26661.80
1285,23076,26682.56
1286,23096,26703.33
1287,23116,26724.09
1288,23136,26744.86
1289,23160,26765.62
1290,23176,26786.39
1291,23188,26807.15
1292,23204,26827.91
1293,23220,26848.68
1294,23228,26869.44
1295,23240,26890.21
1296,23252,26910.97
1297,23264,26931.74
1298,23272,26952.50
1299,23288,26973.27
1300,23296,26994.03
1301,23304,27014.80
1302,23316,27035.56
1303,23324,27056.33
1304,23324,27077.09
1305,23308,27097.86
1306,23264,27118.62
1307,23208,27139.38
1308,23148,27160.15
1309,23100,27180.91
1310,23060,27201.68
1311,23040,27222.44
1312,23028,27243.21
1313,23032,27263.97
1314,23040,27284.74
1315,23052,27305.50
1316,23068,27326.27
1317,23084,27347.03
1318,23088,27367.80
1319,23096,27388.56
1320,23096,27409.32
1321,23092,27430.09
1322,23092,27450.85
1323,23092,27471.62
1324,23100,27492.38
1325,23108,27513.15
1326,23120,27533.91
1327,23132,27554.68
1328,23140,27575.44
1329,23156,27596.21
1330,23176,27616.97
1331,23188,27637.74
1332,23204,27658.50
1333,23204,27679.27
1334,23176,27700.03
1335,23128,27720.79
1336,23064,27741.56
1337,23004,27762.32
1338,22956,27783.09
1339,22924,27803.85
1340,22916,27824.62
1341,22904,27845.38
1342,22912,27866.15
1343,22924,27886.91
1344,22936,27907.68
1345,22952,27928.44
1346,22964,27949.21
1347,22976,27969.97
1348,22980,27990.73
1349,22976,28011.50
1350,22972,28032.26
1351,22976,28053.03
1352,22976,28073.79
1353,22988,28094.56
1354,23004,28115.32
1355,23012,28136.09
1356,23036,28156.85
1357,23060,28177.62
1358,23076,28198.38
1359,23100,28219.15
1360,23120,28239.91
1361,23124,28260.68
1362,23096,28281.44
1363,23048,28302.20
1364,22988,28322.97
1365,22928,28343.73
1366,22888,28364.50
1367,22864,28385.26
1368,22852,28406.03
1369,22856,28426.79
1370,22868,28447.56
1371,22892,28468.32
1372,22912,28489.09
1373,22936,28509.85
1374,22960,28530.62
1375,22980,28551.38
1376,22988,28572.14
1377,22996,28592.91
1378,23000,28613.67
1379,23004,28634.44
1380,23012,28655.20
1381,23024,28675.97
1382,23036,28696.73
1383,23052,28717.50
1384,23072,28738.26
1385,23092,28759.03
1386,23112,28779.79
1387,23136,28800.56
1388,23156,28821.32
1389,23176,28842.08
1390,23188,28862.85
1391,23168,28883.61
1392,23124,28904.38
1393,23064,28925.14
1394,23000,28945.91
1395,22956,28966.67
1396,22924,28987.44
1397,22916,29008.20
1398,22916,29028.97
1399,22928,29049.73
1400,22948,29070.50
1401,22968,29091.26
1402,22992,29112.03
1403,23020,29132.79
1404,23036,29153.55
1405,23048,29174.32
1406,23056,29195.08
1407,23064,29215.85
1408,23064,29236.61
1409,23072,29257.38
1410,23080,29278.14
1411,23088,29298.91
1412,23104,29319.67
1413,23120,29340.44
1414,23144,29361.20
1415,23164,29381.97
1416,23180,29402.73
1417,23200,29423.49
1418,23216,29444.26
1419,23236,29465.02
1420,23232,29485.79
1421,23192,29506.55
1422,23136,29527.32
1423,23072,29548.08
1424,23016,29568.85
1425,22984,29589.61
1426,22960,29610.38
1427,22956,29631.14
1428,22968,29651.91
1429,22980,29672.67
1430,22996,29693.44
1431,23020,29714.20
1432,23044,29734.96
1433,23060,29755.73
1434,23076,29776.49
1435,23076,29797.26
1436,23080,29818.02
1437,23080,29838.79
1438,23084,29859.55
1439,23092,29880.32
1440,23100,29901.08
1441,23112,29921.85
1442,23132,29942.61
1443,23148,29963.38
1444,23160,29984.14
1445,23176,30004.90
1446,23196,30025.67
1447,23212,30046.43
1448,23216,30067.20
1449,23188,30087.96
1450,23136,30108.73
1451,23072,30129.49
1452,23008,30150.26
1453,22964,30171.02
1454,22936,30191.79
1455,22928,30212.55
1456,22932,30233.32
1457,22944,30254.08
1458,22960,30274.85
1459,22984,30295.61
1460,23004,30316.37
1461,23024,30337.14
1462,23036,30357.90
1463,23036,30378.67
1464,23040,30399.43
1465,23044,30420.20
1466,23048,30440.96
1467,23056,30461.73
1468,23068,30482.49
1469,23076,30503.26
1470,23084,30524.02
1471,23100,30544.79
1472,23108,30565.55
1473,23128,30586.31
1474,23148,30607.08
1475,23168,30627.84
1476,23184,30648.61
1477,23180,30669.37
1478,23140,30690.14
1479,23080,30710.90
1480,23008,30731.67
1481,22940,30752.43
1482,22892,30773.20
1483,22864,30793.96
1484,22852,30814.73
1485,22856,30835.49
1486,22872,30856.26
1487,22892,30877.02
1488,22912,30897.78
1489,22932,30918.55
1490,22952,30939.31
1491,22968,30960.08
1492,22976,30980.84
1493,22984,31001.61
1494,22984,31022.37
1495,22988,31043.14
1496,22996,31063.90
1497,23008,31084.67
1498,23016,31105.43
1499,23028,31126.20
1500,23044,31146.96
1501,23060,31167.72
1502,23080,31188.49
1503,23100,31209.25
1504,23124,31230.02
1505,23140,31250.78
1506,23132,31271.55
1507,23108,31292.31
1508,23048,31313.08
1509,22976,31333.84
1510,22908,31354.61
1511,22856,31375.37
1512,22828,31396.14
1513,22820,31416.90
1514,22820,31437.66
1515,22836,31458.43
1516,22856,31479.19
1517,22884,31499.96
1518,22916,31520.72
1519,22940,31541.49
1520,22960,31562.25
1521,22968,31583.02
1522,22972,31603.78
1523,22976,31624.55
1524,22980,31645.31
1525,22988,31666.08
1526,23000,31686.84
1527,23016,31707.61
1528,23028,31728.37
1529,23048,31749.13
1530,23068,31769.90
1531,23084,31790.66
1532,23108,31811.43
1533,23128,31832.19
1534,23132,31852.96
1535,23112,31873.72
1536,23060,31894.49
1537,22996,31915.25
1538,22932,31936.02
1539,22884,31956.78
1540,22856,31977.55
1541,22856,31998.31
1542,22864,32019.07
1543,22880,32039.84
1544,22904,32060.60
1545,22928,32081.37
1546,22956,32102.13
1547,22976,32122.90
1548,22988,32143.66
1549,22988,32164.43
1550,22984,32185.19
1551,22980,32205.96
1552,22976,32226.72
1553,22976,32247.49
1554,22988,32268.25
1555,23000,32289.02
1556,23020,32309.78
1557,23040,32330.54
1558,23064,32351.31
1559,23088,32372.07
1560,23112,32392.84
1561,23124,32413.60
1562,23104,32434.37
1563,23056,32455.13
1564,22988,32475.90
1565,22920,32496.66
1566,22872,32517.43
1567,22844,32538.19
1568,22836,32558.96
1569,22844,32579.72
1570,22864,32600.48
1571,22892,32621.25
1572,22924,32642.01
1573,22956,32662.78
1574,22980,32683.54
1575,22996,32704.31
1576,23012,32725.07
1577,23024,32745.84
1578,23028,32766.60
1579,23036,32787.37
1580,23044,32808.13
1581,23056,32828.90
1582,23068,32849.66
1583,23084,32870.43
1584,23100,32891.19
1585,23116,32911.95
1586,23136,32932.72
1587,23160,32953.48
1588,23180,32974.25
1589,23176,32995.01
1590,23144,33015.78
1591,23080,33036.54
1592,23004,33057.31
1593,22936,33078.07
1594,22876,33098.84
1595,22852,33119.60
1596,22844,33140.37
1597,22852,33161.13
1598,22872,33181.89
1599,22904,33202.66
1600,22932,33223.42
1601,22964,33244.19
1602,22992,33264.95
1603,23004,33285.72
1604,23020,33306.48
1605,23032,33327.25
1606,23036,33348.01
1607,23036,33368.78
1608,23048,33389.54
1609,23060,33410.31
1610,23076,33431.07
1611,23096,33451.84
1612,23112,33472.60
1613,23132,33493.36
1614,23152,33514.13
1615,23172,33534.89
1616,23200,33555.66
1617,23208,33576.42
1618,23180,33597.19
1619,23128,33617.95
1620,23052,33638.72
1621,22984,33659.48
1622,22928,33680.25
1623,22896,33701.01
1624,22884,33721.78
1625,22888,33742.54
1626,22900,33763.30
1627,22928,33784.07
1628,22952,33804.83
1629,22984,33825.60
1630,23008,33846.36
1631,23028,33867.13
1632,23040,33887.89
1633,23044,33908.66
1634,23048,33929.42
1635,23052,33950.19
1636,23056,33970.95
1637,23064,33991.72
1638,23080,34012.48
1639,23096,34033.24
1640,23116,34054.01
1641,23140,34074.77
1642,23164,34095.54
1643,23188,34116.30
1644,23212,34137.07
1645,23216,34157.83
1646,23192,34178.60
1647,23144,34199.36
1648,23084,34220.13
1649,23028,34240.89
1650,22992,34261.66
1651,22976,34282.42
1652,22968,34303.19
1653,22984,34323.95
1654,23000,34344.71
1655,23024,34365.48
1656,23052,34386.24
1657,23076,34407.01
1658,23092,34427.77
1659,23108,34448.54
1660,23116,34469.30
1661,23124,34490.07
1662,23124,34510.83
1663,23132,34531.60
1664,23136,34552.36
1665,23148,34573.13
1666,23160,34593.89
1667,23176,34614.65
1668,23192,34635.42
1669,23208,34656.18
1670,23228,34676.95
1671,23244,34697.71
1672,23256,34718.48
1673,23248,34739.24
1674,23208,34760.01
1675,23152,34780.77
1676,23096,34801.54
1677,23048,34822.30
1678,23016,34843.07
1679,23004,34863.83
1680,23004,34884.60
1681,23016,34905.36
1682,23036,34926.12
1683,23060,34946.89
1684,23088,34967.65
1685,23112,34988.42
1686,23128,35009.18
1687,23148,35029.95
1688,23156,35050.71
1689,23164,35071.48
1690,23176,35092.24
1691,23180,35113.01
1692,23196,35133.77
1693,23212,35154.54
1694,23228,35175.30
1695,23248,35196.06
1696,23268,35216.83
1697,23288,35237.59
1698,23304,35258.36
1699,23324,35279.12
1700,23336,35299.89
1701,23316,35320.65
1702,23272,35341.42
1703,23224,35362.18
1704,23172,35382.95
1705,23132,35403.71
1706,23104,35424.48
1707,23088,35445.24
1708,23088,35466.01
1709,23096,35486.77
1710,23112,35507.53
1711,23128,35528.30
1712,23148,35549.06
1713,23164,35569.83
1714,23180,35590.59
1715,23192,35611.36
1716,23200,35632.12
1717,23208,35652.89
1718,23216,35673.65
1719,23220,35694.42
1720,23228,35715.18
1721,23244,35735.95
1722,23256,35756.71
1723,23276,35777.47
1724,23296,35798.24
1725,23316,35819.00
1726,23336,35839.77
1727,23352,35860.53
1728,23364,35881.30
1729,23360,35902.06
1730,23316,35922.83
1731,23272,35943.59
1732,23228,35964.36
1733,23188,35985.12
1734,23164,36005.89
1735,23152,36026.65
1736,23152,36047.42
1737,23160,36068.18
1738,23180,36088.94
1739,23200,36109.71
1740,23220,36130.47
1741,23236,36151.24
1742,23252,36172.00
1743,23264,36192.77
1744,23268,36213.53
1745,23272,36234.30
1746,23280,36255.06
1747,23280,36275.83
1748,23288,36296.59
1749,23300,36317.36
1750,23312,36338.12
1751,23320,36358.88
1752,23332,36379.65
1753,23348,36400.41
1754,23360,36421.18
1755,23376,36441.94
1756,23384,36462.71
1757,23368,36483.47
1758,23340,36504.24
1759,23292,36525.00
1760,23248,36545.77
1761,23212,36566.53
1762,23192,36587.30
1763,23180,36608.06
1764,23188,36628.82
1765,23200,36649.59
1766,23220,36670.35
1767,23240,36691.12
1768,23256,36711.88
1769,23272,36732.65
1770,23284,36753.41
1771,23288,36774.18
1772,23288,36794.94
1773,23288,36815.71
1774,23288,36836.47
1775,23292,36857.24
1776,23300,36878.00
1777,23312,36898.77
1778,23320,36919.53
1779,23336,36940.29
1780,23348,36961.06
1781,23360,36981.82
1782,23376,37002.59
1783,23388,37023.35
1784,23384,37044.12
1785,23352,37064.88
1786,23312,37085.65
1787,23264,37106.41
1788,23224,37127.18
1789,23192,37147.94
1790,23176,37168.71
1791,23172,37189.47
1792,23176,37210.23
1793,23184,37231.00
1794,23200,37251.76
1795,23216,37272.53
1796,23232,37293.29
1797,23244,37314.06
1798,23252,37334.82
1799,23256,37355.59
1800,23256,37376.35
1801,23260,37397.12
1802,23260,37417.88
1803,23272,37438.65
1804,23276,37459.41
1805,23284,37480.18
1806,23296,37500.94
1807,23312,37521.70
1808,23324,37542.47
1809,23340,37563.23
1810,23356,37584.00
1811,23360,37604.76
1812,23340,37625.53
1813,23300,37646.29
1814,23252,37667.06
1815,23204,37687.82
1816,23164,37708.59
1817,23132,37729.35
1818,23120,37750.12
1819,23120,37770.88
1820,23124,37791.64
1821,23140,37812.41
1822,23160,37833.17
1823,23176,37853.94
1824,23188,37874.70
1825,23204,37895.47
1826,23212,37916.23
1827,23216,37937.00
1828,23220,37957.76
1829,23224,37978.53
1830,23232,37999.29
1831,23236,38020.06
1832,23248,38040.82
1833,23260,38061.59
1834,23276,38082.35
1835,23288,38103.11
1836,23304,38123.88
1837,23320,38144.64
1838,23328,38165.41
1839,23328,38186.17
1840,23296,38206.94
1841,23248,38227.70
1842,23196,38248.47
1843,23148,38269.23
1844,23112,38290.00
1845,23084,38310.76
1846,23076,38331.53
1847,23084,38352.29
1848,23100,38373.05
1849,23116,38393.82
1850,23136,38414.58
1851,23160,38435.35
1852,23176,38456.11
1853,23184,38476.88
1854,23188,38497.64
1855,23196,38518.41
1856,23196,38539.17
1857,23204,38559.94
1858,23212,38580.70
1859,23220,38601.47
1860,23232,38622.23
1861,23244,38643.00
1862,23264,38663.76
1863,23280,38684.52
1864,23296,38705.29
1865,23316,38726.05
1866,23312,38746.82
1867,23284,38767.58
1868,23244,38788.35
1869,23196,38809.11
1870,23152,38829.88
1871,23120,38850.64
1872,23096,38871.41
1873,23092,38892.17
1874,23096,38912.94
1875,23108,38933.70
1876,23124,38954.46
1877,23144,38975.23
1878,23164,38995.99
1879,23172,39016.76
1880,23184,39037.52
1881,23184,39058.29
1882,23184,39079.05
1883,23184,39099.82
1884,23188,39120.58
1885,23196,39141.35
1886,23200,39162.11
1887,23208,39182.88
1888,23216,39203.64
1889,23232,39224.40
1890,23248,39245.17
1891,23264,39265.93
1892,23268,39286.70
1893,23252,39307.46
1894,23212,39328.23
1895,23156,39348.99
1896,23096,39369.76
1897,23048,39390.52
1898,23012,39411.29
1899,22996,39432.05
1900,22996,39452.82
1901,23012,39473.58
1902,23032,39494.35
1903,23056,39515.11
1904,23072,39535.87
1905,23088,39556.64
1906,23100,39577.40
1907,23108,39598.17
1908,23108,39618.93
1909,23112,39639.70
1910,23116,39660.46
1911,23124,39681.23
1912,23132,39701.99
1913,23140,39722.76
1914,23152,39743.52
1915,23168,39764.29
1916,23184,39785.05
1917,23200,39805.81
1918,23212,39826.58
1919,23212,39847.34
1920,23184,39868.11
1921,23128,39888.87
1922,23060,39909.64
1923,23000,39930.40
1924,22948,39951.17
1925,22916,39971.93
1926,22904,39992.70
1927,22916,40013.46
1928,22932,40034.23
1929,22956,40054.99
1930,22988,40075.76
1931,23012,40096.52
1932,23036,40117.28
1933,23048,40138.05
1934,23064,40158.81
1935,23076,40179.58
1936,23080,40200.34
1937,23092,40221.11
1938,23104,40241.87
1939,23116,40262.64
1940,23132,40283.40
1941,23156,40304.17
1942,23180,40324.93
1943,23204,40345.70
1944,23228,40366.46
1945,23244,40387.22
1946,23240,40407.99
1947,23204,40428.75
1948,23144,40449.52
1949,23080,40470.28
1950,23016,40491.05
1951,22976,40511.81
1952,22952,40532.58
1953,22948,40553.34
1954,22956,40574.11
1955,22972,40594.87
1956,23000,40615.64
1957,23028,40636.40
1958,23048,40657.17
1959,23068,40677.93
1960,23076,40698.69
1961,23084,40719.46
1962,23092,40740.22
1963,23092,40760.99
1964,23104,40781.75
1965,23116,40802.52
1966,23128,40823.28
1967,23148,40844.05
1968,23172,40864.81
1969,23200,40885.58
1970,23232,40906.34
1971,23264,40927.11
1972,23292,40947.87
1973,23284,40968.63
1974,23260,40989.40
1975,23212,41010.16
1976,23156,41030.93
1977,23100,41051.69
1978,23056,41072.46
1979,23032,41093.22
1980,23024,41113.99
1981,23024,41134.75
1982,23036,41155.52
1983,23052,41176.28
1984,23076,41197.05
1985,23096,41217.81
1986,23108,41238.58
1987,23120,41259.34
1988,23124,41280.10
1989,23128,41300.87
1990,23128,41321.63
1991,23132,41342.40
1992,23140,41363.16
1993,23148,41383.93
1994,23164,41404.69
1995,23176,41425.46
1996,23192,41446.22
1997,23208,41466.99
1998,23188,41487.75
1999,23148,41508.52
2000,23084,41529.28
2001,23016,41550.04
2002,22960,41570.81
2003,22916,41591.57
2004,22900,41612.34
2005,22900,41633.10
2006,22920,41653.87
2007,22948,41674.63
2008,22980,41695.40
2009,23004,41716.16
2010,23032,41736.93
2011,23044,41757.69
2012,23048,41778.46
2013,23048,41799.22
2014,23052,41819.98
2015,23056,41840.75
2016,23064,41861.51
2017,23072,41882.28
2018,23088,41903.04
2019,23104,41923.81
2020,23128,41944.57
2021,23148,41965.34
2022,23168,41986.10
2023,23152,42006.87
2024,23108,42027.63
2025,23044,42048.40
2026,22968,42069.16
2027,22904,42089.93
2028,22856,42110.69
2029,22836,42131.45
2030,22836,42152.22
2031,22848,42172.98
2032,22876,42193.75
2033,22904,42214.51
2034,22940,42235.28
2035,22968,42256.04
2036,22992,42276.81
2037,23008,42297.57
2038,23016,42318.34
2039,23024,42339.10
2040,23020,42359.87
2041,23028,42380.63
2042,23032,42401.39
2043,23048,42422.16
2044,23060,42442.92
2045,23080,42463.69
2046,23100,42484.45
2047,23120,42505.22
2048,23116,42525.98
2049,23080,42546.75
2050,23008,42567.51
2051,22932,42588.28
2052,22856,42609.04
2053,22804,42629.81
2054,22776,42650.57
2055,22768,42671.34
2056,22780,42692.10
2057,22804,42712.86
2058,22836,42733.63
2059,22868,42754.39
2060,22900,42775.16
2061,22928,42795.92
2062,22948,42816.69
2063,22964,42837.45
2064,22972,42858.22
2065,22980,42878.98
2066,22992,42899.75
2067,23008,42920.51
2068,23020,42941.28
2069,23044,42962.04
2070,23064,42982.80
2071,23088,43003.57
2072,23108,43024.33
2073,23120,43045.10
2074,23092,43065.86
2075,23028,43086.63
2076,22956,43107.39
2077,22880,43128.16
2078,22820,43148.92
2079,22792,43169.69
2080,22780,43190.45
2081,22784,43211.22
2082,22804,43231.98
2083,22832,43252.75
2084,22856,43273.51
2085,22888,43294.27
2086,22912,43315.04
2087,22924,43335.80
2088,22936,43356.57
2089,22944,43377.33
2090,22948,43398.10
2091,22952,43418.86
2092,22964,43439.63
2093,22972,43460.39
2094,22988,43481.16
2095,23000,43501.92
2096,23028,43522.69
2097,23048,43543.45
2098,23068,43564.21
2099,23052,43584.98
2100,23004,43605.74
2101,22932,43626.51
2102,22864,43647.27
2103,22812,43668.04
2104,22776,43688.80
2105,22768,43709.57
2106,22772,43730.33
2107,22792,43751.10
2108,22824,43771.86
2109,22864,43792.63
2110,22896,43813.39
2111,22928,43834.16
2112,22948,43854.92
2113,22960,43875.68
2114,22972,43896.45
2115,22980,43917.21
2116,22984,43937.98
2117,22992,43958.74
2118,23004,43979.51
2119,23020,44000.27
2120,23036,44021.04
2121,23064,44041.80
2122,23084,44062.57
2123,23104,44083.33
2124,23092,44104.10
2125,23040,44124.86
2126,22976,44145.62
2127,22900,44166.39
2128,22844,44187.15
2129,22804,44207.92
2130,22796,44228.68
2131,22804,44249.45
2132,22820,44270.21
2133,22852,44290.98
2134,22884,44311.74
2135,22912,44332.51
2136,22940,44353.27
2137,22956,44374.04
2138,22964,44394.80
2139,22964,44415.56
2140,22964,44436.33
2141,22968,44457.09
2142,22972,44477.86
2143,22988,44498.62
2144,23004,44519.39
2145,23032,44540.15
2146,23052,44560.92
2147,23076,44581.68
2148,23080,44602.45
2149,23052,44623.21
2150,22992,44643.98
2151,22920,44664.74
2152,22840,44685.51
2153,22784,44706.27
2154,22752,44727.03
2155,22744,44747.80
2156,22756,44768.56
2157,22780,44789.33
2158,22808,44810.09
2159,22848,44830.86
2160,22876,44851.62
2161,22904,44872.39
2162,22924,44893.15
2163,22940,44913.92
2164,22944,44934.68
2165,22944,44955.45
2166,22952,44976.21
2167,22960,44996.97
2168,22972,45017.74
2169,22984,45038.50
2170,23004,45059.27
2171,23028,45080.03
2172,23048,45100.80
2173,23048,45121.56
2174,23008,45142.33
2175,22940,45163.09
2176,22852,45183.86
2177,22776,45204.62
2178,22724,45225.39
2179,22688,45246.15
2180,22680,45266.92
2181,22688,45287.68
2182,22712,45308.44
2183,22744,45329.21
2184,22780,45349.97
2185,22812,45370.74
2186,22840,45391.50
2187,22856,45412.27
2188,22868,45433.03
2189,22876,45453.80
2190,22888,45474.56
2191,22896,45495.33
2192,22908,45516.09
2193,22924,45536.86
2194,22940,45557.62
2195,22964,45578.38
2196,22992,45599.15
2197,23016,45619.91
2198,23032,45640.68
2199,23012,45661.44
2200,22956,45682.21
2201,22880,45702.97
2202,22812,45723.74
2203,22748,45744.50
2204,22716,45765.27
2205,22704,45786.03
2206,22712,45806.80
2207,22732,45827.56
2208,22760,45848.33
2209,22788,45869.09
2210,22812,45889.85
2211,22824,45910.62
2212,22832,45931.38
2213,22832,45952.15
2214,22832,45972.91
2215,22836,45993.68
2216,22840,46014.44
2217,22852,46035.21
2218,22868,46055.97
2219,22888,46076.74
2220,22908,46097.50
2221,22928,46118.27
2222,22960,46139.03
2223,22996,46159.79
2224,23012,46180.56
2225,22988,46201.32
2226,22928,46222.09
2227,22848,46242.85
2228,22772,46263.62
2229,22720,46284.38
2230,22692,46305.15
2231,22684,46325.91
2232,22700,46346.68
2233,22724,46367.44
2234,22756,46388.21
2235,22796,46408.97
2236,22832,46429.74
2237,22860,46450.50
2238,22884,46471.26
2239,22896,46492.03
2240,22900,46512.79
2241,22904,46533.56
2242,22912,46554.32
2243,22920,46575.09
2244,22936,46595.85
2245,22952,46616.62
2246,22972,46637.38
2247,22992,46658.15
2248,23020,46678.91
2249,23044,46699.68
2250,23060,46720.44
2251,23036,46741.20
2252,22968,46761.97
2253,22880,46782.73
2254,22788,46803.50
2255,22712,46824.26
2256,22672,46845.03
2257,22660,46865.79
2258,22664,46886.56
2259,22684,46907.32
2260,22708,46928.09
2261,22740,46948.85
2262,22772,46969.62
2263,22800,46990.38
2264,22816,47011.14
2265,22828,47031.91
2266,22832,47052.67
2267,22836,47073.44
2268,22840,47094.20
2269,22852,47114.97
2270,22864,47135.73
2271,22884,47156.50
2272,22908,47177.26
2273,22932,47198.03
2274,22960,47218.79
2275,22988,47239.56
2276,23016,47260.32
2277,23028,47281.09
2278,22992,47301.85
2279,22920,47322.61
2280,22824,47343.38
2281,22732,47364.14
2282,22668,47384.91
2283,22628,47405.67
2284,22620,47426.44
2285,22632,47447.20
2286,22652,47467.97
2287,22688,47488.73
2288,22716,47509.50
2289,22752,47530.26
2290,22780,47551.03
2291,22800,47571.79
2292,22816,47592.55
2293,22824,47613.32
2294,22832,47634.08
2295,22836,47654.85
2296,22844,47675.61
2297,22860,47696.38
2298,22880,47717.14
2299,22900,47737.91
2300,22924,47758.67
2301,22948,47779.44
2302,22972,47800.20
2303,23000,47820.97
2304,23032,47841.73
2305,23036,47862.50
2306,23004,47883.26
2307,22924,47904.02
2308,22824,47924.79
2309,22732,47945.55
2310,22656,47966.32
2311,22616,47987.08
2312,22604,48007.85
2313,22612,48028.61
2314,22632,48049.38
2315,22664,48070.14
2316,22704,48090.91
2317,22744,48111.67
2318,22776,48132.44
2319,22804,48153.20
2320,22824,48173.96
2321,22832,48194.73
2322,22840,48215.49
2323,22844,48236.26
2324,22856,48257.02
2325,22868,48277.79
2326,22888,48298.55
2327,22908,48319.32
2328,22932,48340.08
2329,22956,48360.85
2330,22980,48381.61
2331,23008,48402.38
2332,23036,48423.14
2333,23064,48443.91
2334,23080,48464.67
2335,23052,48485.43
2336,22980,48506.20
2337,22876,48526.96
2338,22776,48547.73
2339,22696,48568.49
2340,22644,48589.26
2341,22624,48610.02
2342,22624,48630.79
2343,22640,48651.55
2344,22668,48672.32
2345,22708,48693.08
2346,22740,48713.85
2347,22780,48734.61
2348,22800,48755.37
2349,22820,48776.14
2350,22832,48796.90
2351,22836,48817.67
2352,22844,48838.43
2353,22848,48859.20
2354,22856,48879.96
2355,22876,48900.73
2356,22892,48921.49
2357,22920,48942.26
2358,22948,48963.02
2359,22972,48983.79
2360,23000,49004.55
2361,23028,49025.32
2362,23052,49046.08
2363,23080,49066.84
2364,23068,49087.61
2365,23012,49108.37
2366,22920,49129.14
2367,22812,49149.90
2368,22716,49170.67
2369,22660,49191.43
2370,22632,49212.20
2371,22628,49232.96
2372,22640,49253.73
2373,22660,49274.49
2374,22692,49295.26
2375,22728,49316.02
2376,22764,49336.78
2377,22788,49357.55
2378,22804,49378.31
2379,22808,49399.08
2380,22812,49419.84
2381,22812,49440.61
2382,22812,49461.37
2383,22820,49482.14
2384,22828,49502.90
2385,22836,49523.67
2386,22860,49544.43
2387,22880,49565.20
2388,22904,49585.96
2389,22928,49606.72
2390,22956,49627.49
2391,22984,49648.25
2392,23012,49669.02
2393,23040,49689.78
2394,23036,49710.55
2395,22980,49731.31
2396,22884,49752.08
2397,22772,49772.84
2398,22668,49793.61
2399,22600,49814.37
2400,22560,49835.14
2401,22552,49855.90
2402,22564,49876.67
2403,22584,49897.43
2404,22616,49918.19
2405,22656,49938.96
2406,22692,49959.72
2407,22724,49980.49
2408,22744,50001.25
2409,22760,50022.02
2410,22764,50042.78
2411,22768,50063.55
2412,22776,50084.31
2413,22784,50105.08
2414,22796,50125.84
2415,22812,50146.61
2416,22824,50167.37
2417,22848,50188.13
2418,22872,50208.90
2419,22900,50229.66
2420,22932,50250.43
2421,22956,50271.19
2422,22988,50291.96
2423,23016,50312.72
2424,23044,50333.49
2425,23056,50354.25
2426,23016,50375.02
2427,22928,50395.78
2428,22816,50416.55
2429,22700,50437.31
2430,22616,50458.08
2431,22560,50478.84
2432,22540,50499.60
2433,22544,50520.37
2434,22556,50541.13
2435,22588,50561.90
2436,22624,50582.66
2437,22664,50603.43
2438,22700,50624.19
2439,22728,50644.96
2440,22748,50665.72
2441,22760,50686.49
2442,22764,50707.25
2443,22772,50728.02
2444,22780,50748.78
2445,22788,50769.54
2446,22800,50790.31
2447,22816,50811.07
2448,22840,50831.84
2449,22868,50852.60
2450,22900,50873.37
2451,22924,50894.13
2452,22956,50914.90
2453,22988,50935.66
2454,23016,50956.43
2455,23044,50977.19
2456,23048,50997.96
2457,23008,51018.72
2458,22920,51039.49
2459,22808,51060.25
2460,22704,51081.01
2461,22624,51101.78
2462,22580,51122.54
2463,22568,51143.31
2464,22576,51164.07
2465,22600,51184.84
2466,22632,51205.60
2467,22668,51226.37
2468,22708,51247.13
2469,22744,51267.90
2470,22768,51288.66
2471,22784,51309.43
2472,22788,51330.19
2473,22788,51350.95
2474,22788,51371.72
2475,22800,51392.48
2476,22816,51413.25
2477,22828,51434.01
2478,22848,51454.78
2479,22872,51475.54
2480,22896,51496.31
2481,22924,51517.07
2482,22952,51537.84
2483,22980,51558.60
2484,23016,51579.37
2485,23044,51600.13
2486,23056,51620.90
2487,23020,51641.66
2488,22936,51662.42
2489,22828,51683.19
2490,22724,51703.95
2491,22648,51724.72
2492,22604,51745.48
2493,22588,51766.25
2494,22592,51787.01
2495,22616,51807.78
2496,22648,51828.54
2497,22688,51849.31
2498,22724,51870.07
2499,22756,51890.84
2500,22776,51911.60
2501,22788,51932.36
2502,22792,51953.13
2503,22788,51973.89
2504,22792,51994.66
2505,22796,52015.42
2506,22804,52036.19
2507,22816,52056.95
2508,22836,52077.72
2509,22852,52098.48
2510,22872,52119.25
2511,22896,52140.01
2512,22920,52160.78
2513,22948,52181.54
2514,22976,52202.30
2515,23004,52223.07
2516,23020,52243.83
2517,22992,52264.60
2518,22916,52285.36
2519,22812,52306.13
2520,22712,52326.89
2521,22636,52347.66
2522,22588,52368.42
2523,22572,52389.19
2524,22576,52409.95
2525,22600,52430.72
2526,22632,52451.48
2527,22668,52472.25
2528,22708,52493.01
2529,22740,52513.77
2530,22768,52534.54
2531,22780,52555.30
2532,22792,52576.07
2533,22804,52596.83
2534,22812,52617.60
2535,22820,52638.36
2536,22836,52659.13
2537,22852,52679.89
2538,22876,52700.66
2539,22900,52721.42
2540,22924,52742.19
2541,22956,52762.95
2542,22984,52783.71
2543,23012,52804.48
2544,23040,52825.24
2545,23068,52846.01
2546,23096,52866.77
2547,23100,52887.54
2548,23064,52908.30
2549,22992,52929.07
2550,22900,52949.83
2551,22804,52970.60
2552,22740,52991.36
2553,22696,53012.13
2554,22676,53032.89
2555,22676,53053.66
2556,22692,53074.42
2557,22716,53095.18
2558,22748,53115.95
2559,22784,53136.71
2560,22816,53157.48
2561,22840,53178.24
2562,22856,53199.01
2563,22868,53219.77
2564,22880,53240.54
2565,22884,53261.30
2566,22896,53282.07
2567,22908,53302.83
2568,22924,53323.60
2569,22944,53344.36
2570,22972,53365.12
2571,22996,53385.89
2572,23020,53406.65
2573,23052,53427.42
2574,23080,53448.18
2575,23108,53468.95
2576,23132,53489.71
2577,23160,53510.48
2578,23184,53531.24
2579,23172,53552.01
2580,23124,53572.77
2581,23048,53593.54
2582,22960,53614.30
2583,22884,53635.07
2584,22828,53655.83
2585,22796,53676.59
2586,22784,53697.36
2587,22784,53718.12
2588,22804,53738.89
2589,22824,53759.65
2590,22852,53780.42
2591,22884,53801.18
2592,22904,53821.95
2593,22920,53842.71
2594,22928,53863.48
2595,22936,53884.24
2596,22940,53905.01
2597,22944,53925.77
2598,22952,53946.53
2599,22960,53967.30
2600,22972,53988.06
2601,22988,54008.83
2602,23008,54029.59
2603,23032,54050.36
2604,23060,54071.12
2605,23088,54091.89
2606,23108,54112.65
2607,23132,54133.42
2608,23160,54154.18
2609,23180,54174.95
2610,23196,54195.71
2611,23184,54216.48
2612,23136,54237.24
2613,23064,54258.00
2614,22976,54278.77
2615,22900,54299.53
2616,22844,54320.30
2617,22812,54341.06
2618,22804,54361.83
2619,22808,54382.59
2620,22824,54403.36
2621,22848,54424.12
2622,22868,54444.89
2623,22892,54465.65
2624,22912,54486.42
2625,22924,54507.18
2626,22928,54527.94
2627,22928,54548.71
2628,22936,54569.47
2629,22936,54590.24
2630,22944,54611.00
2631,22952,54631.77
2632,22960,54652.53
2633,22980,54673.30
2634,22996,54694.06
2635,23016,54714.83
2636,23036,54735.59
2637,23056,54756.36
2638,23080,54777.12
2639,23104,54797.88
2640,23128,54818.65
2641,23148,54839.41
2642,23164,54860.18
2643,23152,54880.94
2644,23104,54901.71
2645,23028,54922.47
2646,22936,54943.24
2647,22852,54964.00
2648,22792,54984.77
2649,22752,55005.53
2650,22732,55026.30
2651,22732,55047.06
2652,22748,55067.83
2653,22772,55088.59
2654,22792,55109.35
2655,22820,55130.12
2656,22848,55150.88
2657,22864,55171.65
2658,22880,55192.41
2659,22888,55213.18
2660,22896,55233.94
2661,22900,55254.71
2662,22908,55275.47
2663,22916,55296.24
2664,22936,55317.00
2665,22952,55337.77
2666,22976,55358.53
2667,22992,55379.29
2668,23020,55400.06
2669,23048,55420.82
2670,23068,55441.59
2671,23100,55462.35
2672,23120,55483.12
2673,23144,55503.88
2674,23164,55524.65
2675,23184,55545.41
2676,23176,55566.18
2677,23128,55586.94
2678,23048,55607.71
2679,22952,55628.47
2680,22860,55649.24
2681,22792,55670.00
2682,22748,55690.76
2683,22732,55711.53
2684,22728,55732.29
2685,22740,55753.06
2686,22764,55773.82
2687,22788,55794.59
2688,22816,55815.35
2689,22840,55836.12
2690,22860,55856.88
2691,22868,55877.65
2692,22876,55898.41
2693,22876,55919.18
2694,22880,55939.94
2695,22884,55960.70
2696,22896,55981.47
2697,22908,56002.23
2698,22928,56023.00
2699,22944,56043.76
2700,22972,56064.53
2701,22992,56085.29
2702,23016,56106.06
2703,23040,56126.82
2704,23068,56147.59
2705,23096,56168.35
2706,23116,56189.12
2707,23128,56209.88
2708,23108,56230.65
2709,23048,56251.41
2710,22960,56272.17
2711,22864,56292.94
2712,22784,56313.70
2713,22732,56334.47
2714,22708,56355.23
2715,22704,56376.00
2716,22712,56396.76
2717,22732,56417.53
2718,22760,56438.29
2719,22788,56459.06
2720,22816,56479.82
2721,22836,56500.59
2722,22844,56521.35
2723,22848,56542.11
2724,22852,56562.88
2725,22844,56583.64
2726,22844,56604.41
2727,22856,56625.17
2728,22864,56645.94
2729,22880,56666.70
2730,22896,56687.47
2731,22912,56708.23
2732,22936,56729.00
2733,22952,56749.76
2734,22972,56770.53
2735,22996,56791.29
2736,23016,56812.06
2737,23040,56832.82
2738,23056,56853.58
2739,23048,56874.35
2740,23004,56895.11
2741,22920,56915.88
2742,22820,56936.64
2743,22720,56957.41
2744,22644,56978.17
2745,22600,56998.94
2746,22584,57019.70
2747,22584,57040.47
2748,22600,57061.23
2749,22624,57082.00
2750,22652,57102.76
2751,22684,57123.52
2752,22708,57144.29
2753,22728,57165.05
2754,22740,57185.82
2755,22748,57206.58
2756,22752,57227.35
2757,22752,57248.11
2758,22764,57268.88
2759,22772,57289.64
2760,22788,57310.41
2761,22808,57331.17
2762,22828,57351.94
2763,22852,57372.70
2764,22876,57393.46
2765,22900,57414.23
2766,22920,57434.99
2767,22948,57455.76
2768,22972,57476.52
2769,22996,57497.29
2770,23020,57518.05
2771,23044,57538.82
2772,23060,57559.58
2773,23032,57580.35
2774,22960,57601.11
2775,22848,57621.88
2776,22732,57642.64
2777,22628,57663.41
2778,22556,57684.17
2779,22520,57704.93
2780,22512,57725.70
2781,22516,57746.46
2782,22532,57767.23
2783,22560,57787.99
2784,22596,57808.76
2785,22624,57829.52
2786,22644,57850.29
2787,22668,57871.05
2788,22684,57891.82
2789,22688,57912.58
2790,22692,57933.35
2791,22692,57954.11
2792,22708,57974.87
2793,22716,57995.64
2794,22732,58016.40
2795,22756,58037.17
2796,22776,58057.93
2797,22800,58078.70
2798,22828,58099.46
2799,22852,58120.23
2800,22884,58140.99
2801,22916,58161.76
2802,22944,58182.52
2803,22972,58203.29
2804,22996,58224.05
2805,23016,58244.82
2806,23036,58265.58
2807,23036,58286.34
2808,22984,58307.11
2809,22888,58327.87
2810,22764,58348.64
2811,22648,58369.40
2812,22560,58390.17
2813,22512,58410.93
2814,22488,58431.70
2815,22496,58452.46
2816,22512,58473.23
2817,22540,58493.99
2818,22568,58514.76
2819,22600,58535.52
2820,22632,58556.28
2821,22648,58577.05
2822,22660,58597.81
2823,22660,58618.58
2824,22660,58639.34
2825,22660,58660.11
2826,22664,58680.87
2827,22672,58701.64
2828,22684,58722.40
2829,22704,58743.17
2830,22724,58763.93
2831,22748,58784.70
2832,22776,58805.46
2833,22804,58826.23
2834,22832,58846.99
2835,22860,58867.75
2836,22892,58888.52
2837,22916,58909.28
2838,22936,58930.05
2839,22964,58950.81
2840,22980,58971.58
2841,22976,58992.34
2842,22920,59013.11
2843,22824,59033.87
2844,22700,59054.64
2845,22592,59075.40
2846,22512,59096.17
2847,22472,59116.93
2848,22460,59137.69
2849,22472,59158.46
2850,22488,59179.22
2851,22516,59199.99
2852,22548,59220.75
2853,22580,59241.52
2854,22604,59262.28
2855,22620,59283.05
2856,22624,59303.81
2857,22620,59324.58
2858,22612,59345.34
2859,22612,59366.11
2860,22612,59386.87
2861,22620,59407.64
2862,22632,59428.40
2863,22648,59449.16
2864,22668,59469.93
2865,22696,59490.69
2866,22720,59511.46
2867,22752,59532.22
2868,22780,59552.99
2869,22808,59573.75
2870,22840,59594.52
2871,22864,59615.28
2872,22892,59636.05
2873,22916,59656.81
2874,22940,59677.58
2875,22956,59698.34
2876,22928,59719.10
2877,22844,59739.87
2878,22728,59760.63
2879,22600,59781.40
2880,22500,59802.16
2881,22428,59822.93
2882,22400,59843.69
2883,22392,59864.46
2884,22408,59885.22
2885,22428,59905.99
2886,22464,59926.75
2887,22496,59947.52
2888,22524,59968.28
2889,22548,59989.04
2890,22572,60009.81
2891,22580,60030.57
2892,22588,60051.34
2893,22592,60072.10
2894,22596,60092.87
2895,22600,60113.63
2896,22612,60134.40
2897,22628,60155.16
2898,22644,60175.93
2899,22664,60196.69
2900,22692,60217.46
2901,22716,60238.22
2902,22744,60258.99
2903,22776,60279.75
2904,22808,60300.51
2905,22840,60321.28
2906,22872,60342.04
2907,22892,60362.81
2908,22920,60383.57
2909,22944,60404.34
2910,22968,60425.10
2911,22992,60445.87
2912,23000,60466.63
2913,22956,60487.40
2914,22864,60508.16
2915,22736,60528.93
2916,22600,60549.69
2917,22496,60570.45
2918,22428,60591.22
2919,22400,60611.98
2920,22400,60632.75
2921,22412,60653.51
2922,22436,60674.28
2923,22468,60695.04
2924,22504,60715.81
2925,22540,60736.57
2926,22568,60757.34
2927,22588,60778.10
2928,22596,60798.87
2929,22604,60819.63
2930,22600,60840.40
2931,22600,60861.16
2932,22608,60881.92
2933,22616,60902.69
2934,22632,60923.45
2935,22656,60944.22
2936,22680,60964.98
2937,22708,60985.75
2938,22736,61006.51
2939,22768,61027.28
2940,22796,61048.04
2941,22828,61068.81
2942,22856,61089.57
2943,22880,61110.34
2944,22900,61131.10
2945,22924,61151.86
2946,22944,61172.63
2947,22948,61193.39
2948,22896,61214.16
2949,22796,61234.92
2950,22672,61255.69
2951,22548,61276.45
2952,22464,61297.22
2953,22416,61317.98
2954,22404,61338.75
2955,22408,61359.51
2956,22432,61380.28
2957,22464,61401.04
2958,22508,61421.81
2959,22548,61442.57
2960,22580,61463.33
2961,22608,61484.10
2962,22620,61504.86
2963,22628,61525.63
2964,22624,61546.39
2965,22620,61567.16
2966,22624,61587.92
2967,22632,61608.69
2968,22644,61629.45
2969,22660,61650.22
2970,22680,61670.98
2971,22704,61691.75
2972,22732,61712.51
2973,22764,61733.27
2974,22788,61754.04
2975,22816,61774.80
2976,22840,61795.57
2977,22868,61816.33
2978,22892,61837.10
2979,22920,61857.86
2980,22928,61878.63
2981,22888,61899.39
2982,22792,61920.16
2983,22660,61940.92
2984,22528,61961.69
2985,22424,61982.45
2986,22364,62003.22
2987,22340,62023.98
2988,22340,62044.74
2989,22360,62065.51
2990,22388,62086.27
2991,22424,62107.04
2992,22464,62127.80
2993,22500,62148.57
2994,22532,62169.33
2995,22548,62190.10
2996,22556,62210.86
2997,22556,62231.63
2998,22552,62252.39
2999,22556,62273.16
