Sample_Index,IR_Value,Timestamp_ms
0,23824,0.00
1,23828,19.98
2,23828,39.95
3,23828,59.93
4,23832,79.91
5,23836,99.88
6,23852,119.86
7,23868,139.83
8,23884,159.81
9,23908,179.79
10,23928,199.76
11,23952,219.74
12,23964,239.72
13,23988,259.69
14,24004,279.67
15,24020,299.64
16,24032,319.62
17,24052,339.60
18,24068,359.57
19,24080,379.55
20,24092,399.53
21,24112,419.50
22,24124,439.48
23,24136,459.45
24,24148,479.43
25,24156,499.41
26,24164,519.38
27,24176,539.36
28,24188,559.34
29,24192,579.31
30,24200,599.29
31,24208,619.26
32,24216,639.24
33,24220,659.22
34,24212,679.19
35,24208,699.17
36,24204,719.15
37,24196,739.12
38,24196,759.10
39,24196,779.07
40,24200,799.05
41,24204,819.03
42,24204,839.00
43,24208,858.98
44,24212,878.96
45,24220,898.93
46,24220,918.91
47,24216,938.89
48,24220,958.86
49,24220,978.84
50,24220,998.81
51,24228,1018.79
52,24232,1038.77
53,24240,1058.74
54,24244,1078.72
55,24248,1098.70
56,24252,1118.67
57,24260,1138.65
58,24260,1158.62
59,24268,1178.60
60,24272,1198.58
61,24276,1218.55
62,24284,1238.53
63,24292,1258.51
64,24296,1278.48
65,24304,1298.46
66,24308,1318.43
67,24316,1338.41
68,24320,1358.39
69,24332,1378.36
70,24340,1398.34
71,24344,1418.32
72,24352,1438.29
73,24356,1458.27
74,24360,1478.24
75,24368,1498.22
76,24368,1518.20
77,24376,1538.17
78,24380,1558.15
79,24384,1578.13
80,24388,1598.10
81,24392,1618.08
82,24396,1638.05
83,24384,1658.03
84,24372,1678.01
85,24356,1697.98
86,24344,1717.96
87,24332,1737.94
88,24328,1757.91
89,24324,1777.89
90,24324,1797.87
91,24324,1817.84
92,24320,1837.82
93,24320,1857.79
94,24320,1877.77
95,24320,1897.75
96,24320,1917.72
97,24320,1937.70
98,24316,1957.68
99,24312,1977.65
100,24312,1997.63
101,24312,2017.60
102,24316,2037.58
103,24316,2057.56
104,24316,2077.53
105,24324,2097.51
106,24324,2117.49
107,24328,2137.46
108,24332,2157.44
109,24332,2177.41
110,24340,2197.39
111,24344,2217.37
112,24348,2237.34
113,24348,2257.32
114,24344,2277.30
115,24344,2297.27
116,24348,2317.25
117,24344,2337.22
118,24348,2357.20
119,24344,2377.18
120,24340,2397.15
121,24340,2417.13
122,24336,2437.11
123,24332,2457.08
124,24324,2477.06
125,24324,2497.04
126,24316,2517.01
127,24320,2536.99
128,24328,2556.96
129,24320,2576.94
130,24316,2596.92
131,24304,2616.89
132,24296,2636.87
133,24284,2656.85
134,24276,2676.82
135,24252,2696.80
136,24232,2716.77
137,24208,2736.75
138,24188,2756.73
139,24164,2776.70
140,24148,2796.68
141,24128,2816.66
142,24108,2836.63
143,24092,2856.61
144,24068,2876.58
145,24048,2896.56
146,24032,2916.54
147,24020,2936.51
148,24008,2956.49
149,23988,2976.47
150,23988,2996.44
151,24032,3016.42
152,24096,3036.39
153,24080,3056.37
154,24052,3076.35
155,24024,3096.32
156,24004,3116.30
157,24016,3136.28
158,24048,3156.25
159,24076,3176.23
160,24092,3196.20
161,24096,3216.18
162,24084,3236.16
163,24068,3256.13
164,24072,3276.11
165,24100,3296.09
166,24124,3316.06
167,24132,3336.04
168,24140,3356.02
169,24148,3375.99
170,24144,3395.97
171,24144,3415.94
172,24148,3435.92
173,24156,3455.90
174,24176,3475.87
175,24204,3495.85
176,24260,3515.83
177,24312,3535.80
178,24332,3555.78
179,24356,3575.75
180,24368,3595.73
181,24372,3615.71
182,24376,3635.68
183,24384,3655.66
184,24396,3675.64
185,24400,3695.61
186,24396,3715.59
187,24388,3735.56
188,24376,3755.54
189,24368,3775.52
190,24364,3795.49
191,24368,3815.47
192,24372,3835.45
193,24372,3855.42
194,24376,3875.40
195,24388,3895.37
196,24392,3915.35
197,24392,3935.33
198,24400,3955.30
199,24400,3975.28
200,24396,3995.26
201,24396,4015.23
202,24388,4035.21
203,24392,4055.18
204,24392,4075.16
205,24396,4095.14
206,24396,4115.11
207,24396,4135.09
208,24396,4155.07
209,24392,4175.04
210,24392,4195.02
211,24392,4215.00
212,24392,4234.97
213,24392,4254.95
214,24392,4274.92
215,24396,4294.90
216,24400,4314.88
217,24408,4334.85
218,24412,4354.83
219,24416,4374.81
220,24420,4394.78
221,24424,4414.76
222,24432,4434.73
223,24440,4454.71
224,24444,4474.69
225,24448,4494.66
226,24448,4514.64
227,24452,4534.62
228,24452,4554.59
229,24464,4574.57
230,24472,4594.54
231,24472,4614.52
232,24468,4634.50
233,24456,4654.47
234,24444,4674.45
235,24436,4694.43
236,24424,4714.40
237,24412,4734.38
238,24412,4754.35
239,24408,4774.33
240,24408,4794.31
241,24404,4814.28
242,24400,4834.26
243,24404,4854.24
244,24408,4874.21
245,24404,4894.19
246,24404,4914.16
247,24400,4934.14
248,24400,4954.12
249,24392,4974.09
250,24388,4994.07
251,24384,5014.05
252,24384,5034.02
253,24384,5054.00
254,24388,5073.98
255,24392,5093.95
256,24396,5113.93
257,24400,5133.90
258,24396,5153.88
259,24392,5173.86
260,24396,5193.83
261,24396,5213.81
262,24400,5233.79
263,24400,5253.76
264,24404,5273.74
265,24408,5293.71
266,24416,5313.69
267,24416,5333.67
268,24424,5353.64
269,24432,5373.62
270,24432,5393.60
271,24440,5413.57
272,24448,5433.55
273,24452,5453.52
274,24460,5473.50
275,24468,5493.48
276,24468,5513.45
277,24464,5533.43
278,24448,5553.41
279,24432,5573.38
280,24412,5593.36
281,24396,5613.33
282,24384,5633.31
283,24380,5653.29
284,24380,5673.26
285,24376,5693.24
286,24376,5713.22
287,24372,5733.19
288,24376,5753.17
289,24376,5773.14
290,24376,5793.12
291,24372,5813.10
292,24372,5833.07
293,24368,5853.05
294,24364,5873.03
295,24356,5893.00
296,24356,5912.98
297,24352,5932.96
298,24356,5952.93
299,24352,5972.91
300,24352,5992.88
301,24356,6012.86
302,24360,6032.84
303,24364,6052.81
304,24364,6072.79
305,24364,6092.77
306,24368,6112.74
307,24368,6132.72
308,24372,6152.69
309,24380,6172.67
310,24380,6192.65
311,24388,6212.62
312,24392,6232.60
313,24400,6252.58
314,24404,6272.55
315,24412,6292.53
316,24416,6312.50
317,24412,6332.48
318,24396,6352.46
319,24380,6372.43
320,24360,6392.41
321,24348,6412.39
322,24332,6432.36
323,24328,6452.34
324,24324,6472.31
325,24324,6492.29
326,24324,6512.27
327,24324,6532.24
328,24328,6552.22
329,24320,6572.20
330,24320,6592.17
331,24316,6612.15
332,24312,6632.13
333,24304,6652.10
334,24296,6672.08
335,24288,6692.05
336,24284,6712.03
337,24280,6732.01
338,24280,6751.98
339,24284,6771.96
340,24284,6791.94
341,24284,6811.91
342,24284,6831.89
343,24284,6851.86
344,24276,6871.84
345,24280,6891.82
346,24284,6911.79
347,24284,6931.77
348,24284,6951.75
349,24288,6971.72
350,24284,6991.70
351,24296,7011.67
352,24292,7031.65
353,24280,7051.63
354,24264,7071.60
355,24244,7091.58
356,24216,7111.56
357,24200,7131.53
358,24188,7151.51
359,24176,7171.48
360,24172,7191.46
361,24164,7211.44
362,24164,7231.41
363,24156,7251.39
364,24160,7271.37
365,24156,7291.34
366,24160,7311.32
367,24160,7331.29
368,24164,7351.27
369,24156,7371.25
370,24156,7391.22
371,24148,7411.20
372,24152,7431.18
373,24152,7451.15
374,24152,7471.13
375,24156,7491.11
376,24156,7511.08
377,24156,7531.06
378,24160,7551.03
379,24160,7571.01
380,24164,7590.99
381,24168,7610.96
382,24172,7630.94
383,24176,7650.92
384,24180,7670.89
385,24184,7690.87
386,24188,7710.84
387,24192,7730.82
388,24192,7750.80
389,24196,7770.77
390,24196,7790.75
391,24204,7810.73
392,24212,7830.70
393,24220,7850.68
394,24224,7870.65
395,24220,7890.63
396,24204,7910.61
397,24180,7930.58
398,24152,7950.56
399,24124,7970.54
400,24104,7990.51
401,24084,8010.49
402,24072,8030.46
403,24060,8050.44
404,24040,8070.42
405,24020,8090.39
406,24004,8110.37
407,23992,8130.35
408,23980,8150.32
409,23976,8170.30
410,23968,8190.27
411,23960,8210.25
412,23948,8230.23
413,23944,8250.20
414,23936,8270.18
415,23932,8290.16
416,23928,8310.13
417,23928,8330.11
418,23924,8350.09
419,23920,8370.06
420,23920,8390.04
421,23928,8410.01
422,23928,8429.99
423,23924,8449.97
424,23924,8469.94
425,23928,8489.92
426,23932,8509.90
427,23936,8529.87
428,23940,8549.85
429,23940,8569.82
430,23948,8589.80
431,23948,8609.78
432,23952,8629.75
433,23956,8649.73
434,23964,8669.71
435,23968,8689.68
436,23972,8709.66
437,23976,8729.63
438,23980,8749.61
439,23992,8769.59
440,24000,8789.56
441,24008,8809.54
442,24012,8829.52
443,24016,8849.49
444,24020,8869.47
445,24032,8889.44
446,24040,8909.42
447,24044,8929.40
448,24052,8949.37
449,24064,8969.35
450,24072,8989.33
451,24080,9009.30
452,24088,9029.28
453,24080,9049.25
454,24064,9069.23
455,24040,9089.21
456,24016,9109.18
457,23988,9129.16
458,23964,9149.14
459,23948,9169.11
460,23936,9189.09
461,23928,9209.07
462,23920,9229.04
463,23912,9249.02
464,23908,9268.99
465,23904,9288.97
466,23904,9308.95
467,23904,9328.92
468,23900,9348.90
469,23896,9368.88
470,23896,9388.85
471,23896,9408.83
472,23892,9428.80
473,23892,9448.78
474,23888,9468.76
475,23892,9488.73
476,23892,9508.71
477,23896,9528.69
478,23900,9548.66
479,23912,9568.64
480,23916,9588.61
481,23924,9608.59
482,23928,9628.57
483,23936,9648.54
484,23944,9668.52
485,23948,9688.50
486,23952,9708.47
487,23960,9728.45
488,23964,9748.42
489,23968,9768.40
490,23972,9788.38
491,23980,9808.35
492,23992,9828.33
493,23996,9848.31
494,24004,9868.28
495,24008,9888.26
496,24012,9908.23
497,24016,9928.21
498,24024,9948.19
499,24028,9968.16
500,24036,9988.14
501,24044,10008.12
502,24036,10028.09
503,24020,10048.07
504,23996,10068.05
505,23968,10088.02
506,23940,10108.00
507,23916,10127.97
508,23900,10147.95
509,23888,10167.93
510,23880,10187.90
511,23876,10207.88
512,23872,10227.86
513,23868,10247.83
514,23872,10267.81
515,23868,10287.78
516,23864,10307.76
517,23860,10327.74
518,23860,10347.71
519,23852,10367.69
520,23844,10387.67
521,23844,10407.64
522,23844,10427.62
523,23848,10447.59
524,23848,10467.57
525,23852,10487.55
526,23856,10507.52
527,23864,10527.50
528,23872,10547.48
529,23880,10567.45
530,23888,10587.43
531,23896,10607.40
532,23904,10627.38
533,23908,10647.36
534,23920,10667.33
535,23924,10687.31
536,23932,10707.29
537,23936,10727.26
538,23940,10747.24
539,23948,10767.22
540,23952,10787.19
541,23960,10807.17
542,23972,10827.14
543,23980,10847.12
544,23988,10867.10
545,23984,10887.07
546,23968,10907.05
547,23944,10927.03
548,23920,10947.00
549,23900,10966.98
550,23880,10986.95
551,23872,11006.93
552,23864,11026.91
553,23864,11046.88
554,23864,11066.86
555,23864,11086.84
556,23872,11106.81
557,23876,11126.79
558,23876,11146.76
559,23876,11166.74
560,23876,11186.72
561,23872,11206.69
562,23872,11226.67
563,23872,11246.65
564,23876,11266.62
565,23880,11286.60
566,23888,11306.57
567,23892,11326.55
568,23900,11346.53
569,23908,11366.50
570,23916,11386.48
571,23920,11406.46
572,23928,11426.43
573,23936,11446.41
574,23940,11466.38
575,23948,11486.36
576,23952,11506.34
577,23956,11526.31
578,23968,11546.29
579,23972,11566.27
580,23972,11586.24
581,23976,11606.22
582,23972,11626.20
583,23964,11646.17
584,23940,11666.15
585,23912,11686.12
586,23880,11706.10
587,23852,11726.08
588,23828,11746.05
589,23816,11766.03
590,23808,11786.01
591,23800,11805.98
592,23788,11825.96
593,23788,11845.93
594,23784,11865.91
595,23780,11885.89
596,23776,11905.86
597,23772,11925.84
598,23772,11945.82
599,23764,11965.79
600,23760,11985.77
601,23756,12005.74
602,23752,12025.72
603,23756,12045.70
604,23760,12065.67
605,23764,12085.65
606,23768,12105.63
607,23776,12125.60
608,23788,12145.58
609,23796,12165.55
610,23800,12185.53
611,23808,12205.51
612,23816,12225.48
613,23824,12245.46
614,23832,12265.44
615,23840,12285.41
616,23844,12305.39
617,23852,12325.36
618,23860,12345.34
619,23872,12365.32
620,23876,12385.29
621,23880,12405.27
622,23888,12425.25
623,23892,12445.22
624,23896,12465.20
625,23880,12485.18
626,23860,12505.15
627,23816,12525.13
628,23776,12545.10
629,23740,12565.08
630,23708,12585.06
631,23680,12605.03
632,23656,12625.01
633,23640,12644.99
634,23616,12664.96
635,23600,12684.94
636,23580,12704.91
637,23572,12724.89
638,23572,12744.87
639,23568,12764.84
640,23564,12784.82
641,23564,12804.80
642,23556,12824.77
643,23548,12844.75
644,23540,12864.72
645,23540,12884.70
646,23544,12904.68
647,23552,12924.65
648,23560,12944.63
649,23568,12964.61
650,23576,12984.58
651,23584,13004.56
652,23588,13024.53
653,23596,13044.51
654,23604,13064.49
655,23612,13084.46
656,23620,13104.44
657,23624,13124.42
658,23636,13144.39
659,23640,13164.37
660,23644,13184.34
661,23660,13204.32
662,23668,13224.30
663,23680,13244.27
664,23688,13264.25
665,23692,13284.23
666,23700,13304.20
667,23716,13324.18
668,23728,13344.16
669,23736,13364.13
670,23748,13384.11
671,23756,13404.08
672,23760,13424.06
673,23748,13444.04
674,23716,13464.01
675,23668,13483.99
676,23616,13503.97
677,23572,13523.94
678,23540,13543.92
679,23508,13563.89
680,23488,13583.87
681,23472,13603.85
682,23452,13623.82
683,23440,13643.80
684,23428,13663.78
685,23424,13683.75
686,23424,13703.73
687,23428,13723.70
688,23428,13743.68
689,23424,13763.66
690,23424,13783.63
691,23420,13803.61
692,23420,13823.59
693,23420,13843.56
694,23428,13863.54
695,23432,13883.51
696,23444,13903.49
697,23444,13923.47
698,23452,13943.44
699,23456,13963.42
700,23468,13983.40
701,23472,14003.37
702,23484,14023.35
703,23488,14043.32
704,23500,14063.30
705,23508,14083.28
706,23516,14103.25
707,23524,14123.23
708,23532,14143.21
709,23540,14163.18
710,23548,14183.16
711,23556,14203.14
712,23568,14223.11
713,23580,14243.09
714,23588,14263.06
715,23596,14283.04
716,23612,14303.02
717,23620,14322.99
718,23632,14342.97
719,23640,14362.95
720,23644,14382.92
721,23656,14402.90
722,23664,14422.87
723,23676,14442.85
724,23684,14462.83
725,23696,14482.80
726,23708,14502.78
727,23716,14522.76
728,23720,14542.73
729,23732,14562.71
730,23740,14582.68
731,23748,14602.66
732,23752,14622.64
733,23740,14642.61
734,23712,14662.59
735,23668,14682.57
736,23616,14702.54
737,23572,14722.52
738,23532,14742.49
739,23508,14762.47
740,23492,14782.45
741,23480,14802.42
742,23464,14822.40
743,23456,14842.38
744,23456,14862.35
745,23456,14882.33
746,23452,14902.31
747,23460,14922.28
748,23456,14942.26
749,23452,14962.23
750,23444,14982.21
751,23440,15002.19
752,23436,15022.16
753,23436,15042.14
754,23444,15062.12
755,23444,15082.09
756,23452,15102.07
757,23460,15122.04
758,23468,15142.02
759,23476,15162.00
760,23484,15181.97
761,23492,15201.95
762,23492,15221.93
763,23500,15241.90
764,23508,15261.88
765,23512,15281.85
766,23520,15301.83
767,23528,15321.81
768,23536,15341.78
769,23544,15361.76
770,23552,15381.74
771,23564,15401.71
772,23572,15421.69
773,23580,15441.66
774,23588,15461.64
775,23596,15481.62
776,23608,15501.59
777,23620,15521.57
778,23628,15541.55
779,23640,15561.52
780,23648,15581.50
781,23648,15601.47
782,23632,15621.45
783,23600,15641.43
784,23552,15661.40
785,23508,15681.38
786,23472,15701.36
787,23444,15721.33
788,23424,15741.31
789,23416,15761.29
790,23408,15781.26
791,23404,15801.24
792,23400,15821.21
793,23400,15841.19
794,23400,15861.17
795,23400,15881.14
796,23400,15901.12
797,23392,15921.10
798,23384,15941.07
799,23372,15961.05
800,23372,15981.02
801,23368,16001.00
802,23368,16020.98
803,23372,16040.95
804,23376,16060.93
805,23384,16080.91
806,23388,16100.88
807,23396,16120.86
808,23404,16140.83
809,23412,16160.81
810,23416,16180.79
811,23424,16200.76
812,23432,16220.74
813,23440,16240.72
814,23444,16260.69
815,23448,16280.67
816,23452,16300.64
817,23448,16320.62
818,23452,16340.60
819,23464,16360.57
820,23472,16380.55
821,23480,16400.53
822,23488,16420.50
823,23480,16440.48
824,23452,16460.45
825,23412,16480.43
826,23364,16500.41
827,23320,16520.38
828,23284,16540.36
829,23260,16560.34
830,23248,16580.31
831,23236,16600.29
832,23232,16620.27
833,23228,16640.24
834,23228,16660.22
835,23228,16680.19
836,23232,16700.17
837,23232,16720.15
838,23232,16740.12
839,23232,16760.10
840,23228,16780.08
841,23220,16800.05
842,23224,16820.03
843,23224,16840.00
844,23232,16859.98
845,23236,16879.96
846,23244,16899.93
847,23252,16919.91
848,23260,16939.89
849,23268,16959.86
850,23276,16979.84
851,23288,16999.81
852,23296,17019.79
853,23308,17039.77
854,23320,17059.74
855,23324,17079.72
856,23336,17099.70
857,23340,17119.67
858,23348,17139.65
859,23356,17159.62
860,23368,17179.60
861,23380,17199.58
862,23392,17219.55
863,23408,17239.53
864,23420,17259.51
865,23436,17279.48
866,23452,17299.46
867,23464,17319.43
868,23480,17339.41
869,23484,17359.39
870,23472,17379.36
871,23436,17399.34
872,23380,17419.32
873,23320,17439.29
874,23264,17459.27
875,23216,17479.25
876,23188,17499.22
877,23172,17519.20
878,23152,17539.17
879,23132,17559.15
880,23116,17579.13
881,23108,17599.10
882,23100,17619.08
883,23104,17639.06
884,23108,17659.03
885,23108,17679.01
886,23108,17698.98
887,23108,17718.96
888,23100,17738.94
889,23096,17758.91
890,23100,17778.89
891,23100,17798.87
892,23104,17818.84
893,23116,17838.82
894,23124,17858.79
895,23132,17878.77
896,23144,17898.75
897,23152,17918.72
898,23164,17938.70
899,23172,17958.68
900,23184,17978.65
901,23192,17998.63
902,23200,18018.60
903,23208,18038.58
904,23216,18058.56
905,23224,18078.53
906,23236,18098.51
907,23248,18118.49
908,23260,18138.46
909,23272,18158.44
910,23288,18178.41
911,23300,18198.39
912,23316,18218.37
913,23328,18238.34
914,23340,18258.32
915,23356,18278.30
916,23368,18298.27
917,23380,18318.25
918,23396,18338.23
919,23408,18358.20
920,23424,18378.18
921,23436,18398.15
922,23444,18418.13
923,23452,18438.11
924,23468,18458.08
925,23480,18478.06
926,23492,18498.04
927,23508,18518.01
928,23516,18537.99
929,23508,18557.96
930,23472,18577.94
931,23412,18597.92
932,23352,18617.89
933,23284,18637.87
934,23236,18657.85
935,23200,18677.82
936,23172,18697.80
937,23152,18717.77
938,23140,18737.75
939,23124,18757.73
940,23108,18777.70
941,23104,18797.68
942,23104,18817.66
943,23108,18837.63
944,23108,18857.61
945,23104,18877.58
946,23100,18897.56
947,23096,18917.54
948,23092,18937.51
949,23092,18957.49
950,23096,18977.47
951,23100,18997.44
952,23112,19017.42
953,23120,19037.39
954,23132,19057.37
955,23144,19077.35
956,23156,19097.32
957,23164,19117.30
958,23180,19137.28
959,23192,19157.25
960,23200,19177.23
961,23212,19197.21
962,23220,19217.18
963,23232,19237.16
964,23244,19257.13
965,23256,19277.11
966,23260,19297.09
967,23272,19317.06
968,23284,19337.04
969,23296,19357.02
970,23308,19376.99
971,23324,19396.97
972,23336,19416.94
973,23348,19436.92
974,23356,19456.90
975,23372,19476.87
976,23388,19496.85
977,23392,19516.83
978,23404,19536.80
979,23408,19556.78
980,23420,19576.75
981,23416,19596.73
982,23396,19616.71
983,23356,19636.68
984,23304,19656.66
985,23248,19676.64
986,23204,19696.61
987,23176,19716.59
988,23148,19736.56
989,23140,19756.54
990,23132,19776.52
991,23128,19796.49
992,23124,19816.47
993,23132,19836.45
994,23136,19856.42
995,23144,19876.40
996,23144,19896.38
997,23148,19916.35
998,23144,19936.33
999,23136,19956.30
1000,23132,19976.28
1001,23128,19996.26
1002,23132,20016.23
1003,23140,20036.21
1004,23148,20056.19
1005,23164,20076.16
1006,23180,20096.14
1007,23192,20116.11
1008,23204,20136.09
1009,23216,20156.07
1010,23228,20176.04
1011,23236,20196.02
1012,23244,20216.00
1013,23256,20235.97
1014,23268,20255.95
1015,23276,20275.92
1016,23288,20295.90
1017,23300,20315.88
1018,23308,20335.85
1019,23324,20355.83
1020,23332,20375.81
1021,23340,20395.78
1022,23356,20415.76
1023,23368,20435.73
1024,23380,20455.71
1025,23388,20475.69
1026,23392,20495.66
1027,23372,20515.64
1028,23332,20535.62
1029,23276,20555.59
1030,23224,20575.57
1031,23180,20595.54
1032,23144,20615.52
1033,23120,20635.50
1034,23112,20655.47
1035,23104,20675.45
1036,23096,20695.43
1037,23096,20715.40
1038,23104,20735.38
1039,23112,20755.36
1040,23120,20775.33
1041,23120,20795.31
1042,23120,20815.28
1043,23120,20835.26
1044,23116,20855.24
1045,23120,20875.21
1046,23120,20895.19
1047,23128,20915.17
1048,23136,20935.14
1049,23148,20955.12
1050,23164,20975.09
1051,23176,20995.07
1052,23188,21015.05
1053,23200,21035.02
1054,23212,21055.00
1055,23224,21074.98
1056,23232,21094.95
1057,23248,21114.93
1058,23256,21134.90
1059,23268,21154.88
1060,23280,21174.86
1061,23292,21194.83
1062,23304,21214.81
1063,23312,21234.79
1064,23324,21254.76
1065,23336,21274.74
1066,23348,21294.71
1067,23356,21314.69
1068,23364,21334.67
1069,23372,21354.64
1070,23384,21374.62
1071,23384,21394.60
1072,23356,21414.57
1073,23308,21434.55
1074,23248,21454.52
1075,23184,21474.50
1076,23132,21494.48
1077,23096,21514.45
1078,23068,21534.43
1079,23052,21554.41
1080,23036,21574.38
1081,23024,21594.36
1082,23016,21614.34
1083,23008,21634.31
1084,23008,21654.29
1085,23012,21674.26
1086,23020,21694.24
1087,23024,21714.22
1088,23024,21734.19
1089,23020,21754.17
1090,23024,21774.15
1091,23024,21794.12
1092,23028,21814.10
1093,23036,21834.07
1094,23048,21854.05
1095,23064,21874.03
1096,23072,21894.00
1097,23088,21913.98
1098,23104,21933.96
1099,23116,21953.93
1100,23128,21973.91
1101,23140,21993.88
1102,23152,22013.86
1103,23168,22033.84
1104,23180,22053.81
1105,23192,22073.79
1106,23204,22093.77
1107,23216,22113.74
1108,23232,22133.72
1109,23244,22153.69
1110,23256,22173.67
1111,23268,22193.65
1112,23284,22213.62
1113,23292,22233.60
1114,23304,22253.58
1115,23316,22273.55
1116,23332,22293.53
1117,23344,22313.50
1118,23356,22333.48
1119,23372,22353.46
1120,23388,22373.43
1121,23384,22393.41
1122,23356,22413.39
1123,23308,22433.36
1124,23240,22453.34
1125,23180,22473.32
1126,23128,22493.29
1127,23092,22513.27
1128,23072,22533.24
1129,23056,22553.22
1130,23040,22573.20
1131,23032,22593.17
1132,23016,22613.15
1133,23008,22633.13
1134,23004,22653.10
1135,23000,22673.08
1136,23004,22693.05
1137,23000,22713.03
1138,22992,22733.01
1139,22988,22752.98
1140,22984,22772.96
1141,22980,22792.94
1142,22976,22812.91
1143,22980,22832.89
1144,22984,22852.86
1145,22988,22872.84
1146,23000,22892.82
1147,23004,22912.79
1148,23020,22932.77
1149,23028,22952.75
1150,23044,22972.72
1151,23052,22992.70
1152,23064,23012.67
1153,23068,23032.65
1154,23076,23052.63
1155,23088,23072.60
1156,23096,23092.58
1157,23104,23112.56
1158,23116,23132.53
1159,23128,23152.51
1160,23132,23172.48
1161,23148,23192.46
1162,23160,23212.44
1163,23168,23232.41
1164,23184,23252.39
1165,23192,23272.37
1166,23200,23292.34
1167,23212,23312.32
1168,23224,23332.30
1169,23224,23352.27
1170,23216,23372.25
1171,23180,23392.22
1172,23128,23412.20
1173,23068,23432.18
1174,23008,23452.15
1175,22964,23472.13
1176,22940,23492.11
1177,22920,23512.08
1178,22912,23532.06
1179,22904,23552.03
1180,22900,23572.01
1181,22904,23591.99
1182,22908,23611.96
1183,22916,23631.94
1184,22920,23651.92
1185,22920,23671.89
1186,22920,23691.87
1187,22912,23711.84
1188,22904,23731.82
1189,22900,23751.80
1190,22904,23771.77
1191,22912,23791.75
1192,22916,23811.73
1193,22924,23831.70
1194,22936,23851.68
1195,22948,23871.65
1196,22956,23891.63
1197,22972,23911.61
1198,22980,23931.58
1199,22988,23951.56
1200,22996,23971.54
1201,23008,23991.51
1202,23016,24011.49
1203,23024,24031.47
1204,23036,24051.44
1205,23052,24071.42
1206,23060,24091.39
1207,23076,24111.37
1208,23084,24131.35
1209,23100,24151.32
1210,23116,24171.30
1211,23128,24191.28
1212,23144,24211.25
1213,23144,24231.23
1214,23128,24251.20
1215,23092,24271.18
1216,23040,24291.16
1217,22988,24311.13
1218,22944,24331.11
1219,22916,24351.09
1220,22900,24371.06
1221,22888,24391.04
1222,22888,24411.01
1223,22888,24430.99
1224,22892,24450.97
1225,22904,24470.94
1226,22912,24490.92
1227,22916,24510.90
1228,22916,24530.87
1229,22920,24550.85
1230,22912,24570.82
1231,22912,24590.80
1232,22908,24610.78
1233,22912,24630.75
1234,22920,24650.73
1235,22928,24670.71
1236,22944,24690.68
1237,22948,24710.66
1238,22956,24730.63
1239,22960,24750.61
1240,22968,24770.59
1241,22972,24790.56
1242,22972,24810.54
1243,22972,24830.52
1244,22972,24850.49
1245,22976,24870.47
1246,22984,24890.45
1247,22992,24910.42
1248,23000,24930.40
1249,23008,24950.37
1250,23016,24970.35
1251,23020,24990.33
1252,23032,25010.30
1253,23044,25030.28
1254,23056,25050.26
1255,23068,25070.23
1256,23072,25090.21
1257,23056,25110.18
1258,23012,25130.16
1259,22952,25150.14
1260,22884,25170.11
1261,22824,25190.09
1262,22784,25210.07
1263,22756,25230.04
1264,22736,25250.02
1265,22724,25269.99
1266,22716,25289.97
1267,22704,25309.95
1268,22696,25329.92
1269,22700,25349.90
1270,22704,25369.88
1271,22716,25389.85
1272,22720,25409.83
1273,22724,25429.80
1274,22724,25449.78
1275,22724,25469.76
1276,22728,25489.73
1277,22736,25509.71
1278,22744,25529.69
1279,22752,25549.66
1280,22768,25569.64
1281,22784,25589.61
1282,22800,25609.59
1283,22812,25629.57
1284,22828,25649.54
1285,22840,25669.52
1286,22856,25689.50
1287,22868,25709.47
1288,22880,25729.45
1289,22888,25749.43
1290,22904,25769.40
1291,22916,25789.38
1292,22928,25809.35
1293,22940,25829.33
1294,22952,25849.31
1295,22968,25869.28
1296,22980,25889.26
1297,22992,25909.24
1298,23008,25929.21
1299,23020,25949.19
1300,23040,25969.16
1301,23052,25989.14
1302,23068,26009.12
1303,23088,26029.09
1304,23100,26049.07
1305,23120,26069.05
1306,23132,26089.02
1307,23148,26109.00
1308,23160,26128.97
1309,23176,26148.95
1310,23196,26168.93
1311,23208,26188.90
1312,23224,26208.88
1313,23220,26228.86
1314,23188,26248.83
1315,23128,26268.81
1316,23052,26288.78
1317,22984,26308.76
1318,22928,26328.74
1319,22888,26348.71
1320,22860,26368.69
1321,22848,26388.67
1322,22836,26408.64
1323,22828,26428.62
1324,22824,26448.59
1325,22824,26468.57
1326,22828,26488.55
1327,22828,26508.52
1328,22832,26528.50
1329,22828,26548.48
1330,22820,26568.45
1331,22816,26588.43
1332,22808,26608.41
1333,22808,26628.38
1334,22808,26648.36
1335,22812,26668.33
1336,22828,26688.31
1337,22844,26708.29
1338,22860,26728.26
1339,22872,26748.24
1340,22888,26768.22
1341,22904,26788.19
1342,22916,26808.17
1343,22932,26828.14
1344,22948,26848.12
1345,22960,26868.10
1346,22972,26888.07
1347,22984,26908.05
1348,23000,26928.03
1349,23008,26948.00
1350,23028,26967.98
1351,23040,26987.95
1352,23056,27007.93
1353,23068,27027.91
1354,23088,27047.88
1355,23100,27067.86
1356,23120,27087.84
1357,23136,27107.81
1358,23156,27127.79
1359,23172,27147.76
1360,23188,27167.74
1361,23204,27187.72
1362,23208,27207.69
1363,23184,27227.67
1364,23140,27247.65
1365,23088,27267.62
1366,23028,27287.60
1367,22976,27307.57
1368,22944,27327.55
1369,22924,27347.53
1370,22912,27367.50
1371,22908,27387.48
1372,22908,27407.46
1373,22908,27427.43
1374,22912,27447.41
1375,22920,27467.39
1376,22924,27487.36
1377,22924,27507.34
1378,22928,27527.31
1379,22920,27547.29
1380,22916,27567.27
1381,22912,27587.24
1382,22904,27607.22
1383,22908,27627.20
1384,22916,27647.17
1385,22928,27667.15
1386,22936,27687.12
1387,22948,27707.10
1388,22964,27727.08
1389,22980,27747.05
1390,22996,27767.03
1391,23008,27787.01
1392,23024,27806.98
1393,23040,27826.96
1394,23056,27846.93
1395,23072,27866.91
1396,23084,27886.89
1397,23092,27906.86
1398,23104,27926.84
1399,23112,27946.82
1400,23128,27966.79
1401,23136,27986.77
1402,23148,28006.74
1403,23156,28026.72
1404,23156,28046.70
1405,23132,28066.67
1406,23084,28086.65
1407,23028,28106.63
1408,22976,28126.60
1409,22924,28146.58
1410,22892,28166.56
1411,22872,28186.53
1412,22860,28206.51
1413,22852,28226.48
1414,22852,28246.46
1415,22852,28266.44
1416,22860,28286.41
1417,22864,28306.39
1418,22868,28326.37
1419,22872,28346.34
1420,22868,28366.32
1421,22868,28386.29
1422,22864,28406.27
1423,22860,28426.25
1424,22856,28446.22
1425,22860,28466.20
1426,22864,28486.18
1427,22872,28506.15
1428,22888,28526.13
1429,22896,28546.10
1430,22912,28566.08
1431,22924,28586.06
1432,22936,28606.03
1433,22956,28626.01
1434,22964,28645.99
1435,22984,28665.96
1436,22992,28685.94
1437,23004,28705.91
1438,23016,28725.89
1439,23028,28745.87
1440,23040,28765.84
1441,23052,28785.82
1442,23064,28805.80
1443,23076,28825.77
1444,23092,28845.75
1445,23104,28865.72
1446,23116,28885.70
1447,23116,28905.68
1448,23092,28925.65
1449,23040,28945.63
1450,22980,28965.61
1451,22904,28985.58
1452,22840,29005.56
1453,22792,29025.54
1454,22760,29045.51
1455,22740,29065.49
1456,22724,29085.46
1457,22712,29105.44
1458,22696,29125.42
1459,22692,29145.39
1460,22688,29165.37
1461,22692,29185.35
1462,22696,29205.32
1463,22700,29225.30
1464,22704,29245.27
1465,22704,29265.25
1466,22700,29285.23
1467,22700,29305.20
1468,22700,29325.18
1469,22708,29345.16
1470,22712,29365.13
1471,22724,29385.11
1472,22732,29405.08
1473,22744,29425.06
1474,22756,29445.04
1475,22768,29465.01
1476,22776,29484.99
1477,22788,29504.97
1478,22804,29524.94
1479,22820,29544.92
1480,22836,29564.89
1481,22848,29584.87
1482,22864,29604.85
1483,22876,29624.82
1484,22892,29644.80
1485,22908,29664.78
1486,22928,29684.75
1487,22940,29704.73
1488,22952,29724.70
1489,22968,29744.68
1490,22976,29764.66
1491,22996,29784.63
1492,23012,29804.61
1493,23028,29824.59
1494,23040,29844.56
1495,23056,29864.54
1496,23072,29884.52
1497,23088,29904.49
1498,23096,29924.47
1499,23088,29944.44
1500,23052,29964.42
1501,22988,29984.40
1502,22912,30004.37
1503,22836,30024.35
1504,22776,30044.33
1505,22732,30064.30
1506,22704,30084.28
1507,22688,30104.25
1508,22680,30124.23
1509,22672,30144.21
1510,22664,30164.18
1511,22668,30184.16
1512,22672,30204.14
1513,22676,30224.11
1514,22680,30244.09
1515,22680,30264.06
1516,22680,30284.04
1517,22676,30304.02
1518,22672,30323.99
1519,22676,30343.97
1520,22676,30363.95
1521,22684,30383.92
1522,22692,30403.90
1523,22704,30423.87
1524,22716,30443.85
1525,22736,30463.83
1526,22752,30483.80
1527,22764,30503.78
1528,22784,30523.76
1529,22796,30543.73
1530,22808,30563.71
1531,22812,30583.68
1532,22828,30603.66
1533,22836,30623.64
1534,22848,30643.61
1535,22860,30663.59
1536,22872,30683.57
1537,22884,30703.54
1538,22892,30723.52
1539,22900,30743.50
1540,22912,30763.47
1541,22920,30783.45
1542,22928,30803.42
1543,22936,30823.40
1544,22948,30843.38
1545,22956,30863.35
1546,22960,30883.33
1547,22936,30903.31
1548,22892,30923.28
1549,22828,30943.26
1550,22768,30963.23
1551,22708,30983.21
1552,22664,31003.19
1553,22640,31023.16
1554,22624,31043.14
1555,22624,31063.12
1556,22620,31083.09
1557,22628,31103.07
1558,22640,31123.04
1559,22648,31143.02
1560,22664,31163.00
1561,22668,31182.97
1562,22668,31202.95
1563,22664,31222.93
1564,22656,31242.90
1565,22656,31262.88
1566,22652,31282.85
1567,22656,31302.83
1568,22660,31322.81
1569,22676,31342.78
1570,22688,31362.76
1571,22704,31382.74
1572,22724,31402.71
1573,22740,31422.69
1574,22752,31442.66
1575,22764,31462.64
1576,22776,31482.62
1577,22788,31502.59
1578,22796,31522.57
1579,22800,31542.55
1580,22812,31562.52
1581,22820,31582.50
1582,22828,31602.48
1583,22840,31622.45
1584,22848,31642.43
1585,22848,31662.40
1586,22860,31682.38
1587,22876,31702.36
1588,22888,31722.33
1589,22896,31742.31
1590,22896,31762.29
1591,22864,31782.26
1592,22808,31802.24
1593,22736,31822.21
1594,22664,31842.19
1595,22596,31862.17
1596,22552,31882.14
1597,22520,31902.12
1598,22500,31922.10
1599,22488,31942.07
1600,22476,31962.05
1601,22468,31982.02
1602,22464,32002.00
1603,22468,32021.98
1604,22468,32041.95
1605,22472,32061.93
1606,22472,32081.91
1607,22472,32101.88
1608,22472,32121.86
1609,22472,32141.83
1610,22468,32161.81
1611,22472,32181.79
1612,22484,32201.76
1613,22492,32221.74
1614,22512,32241.72
1615,22528,32261.69
1616,22548,32281.67
1617,22568,32301.65
1618,22580,32321.62
1619,22600,32341.60
1620,22620,32361.57
1621,22636,32381.55
1622,22656,32401.53
1623,22676,32421.50
1624,22688,32441.48
1625,22704,32461.46
1626,22720,32481.43
1627,22736,32501.41
1628,22748,32521.38
1629,22768,32541.36
1630,22780,32561.34
1631,22792,32581.31
1632,22804,32601.29
1633,22816,32621.27
1634,22828,32641.24
1635,22836,32661.22
1636,22852,32681.19
1637,22860,32701.17
1638,22864,32721.15
1639,22852,32741.12
1640,22804,32761.10
1641,22736,32781.08
1642,22652,32801.05
1643,22580,32821.03
1644,22524,32841.00
1645,22484,32860.98
1646,22460,32880.96
1647,22444,32900.93
1648,22432,32920.91
1649,22428,32940.89
1650,22424,32960.86
1651,22428,32980.84
1652,22436,33000.81
1653,22440,33020.79
1654,22448,33040.77
1655,22452,33060.74
1656,22452,33080.72
1657,22448,33100.70
1658,22448,33120.67
1659,22444,33140.65
1660,22440,33160.63
1661,22448,33180.60
1662,22460,33200.58
1663,22476,33220.55
1664,22488,33240.53
1665,22504,33260.51
1666,22520,33280.48
1667,22532,33300.46
1668,22544,33320.44
1669,22564,33340.41
1670,22572,33360.39
1671,22584,33380.36
1672,22588,33400.34
1673,22600,33420.32
1674,22612,33440.29
1675,22620,33460.27
1676,22632,33480.25
1677,22644,33500.22
1678,22656,33520.20
1679,22664,33540.17
1680,22672,33560.15
1681,22680,33580.13
1682,22692,33600.10
1683,22708,33620.08
1684,22720,33640.06
1685,22732,33660.03
1686,22728,33680.01
1687,22688,33699.98
1688,22632,33719.96
1689,22560,33739.94
1690,22492,33759.91
1691,22440,33779.89
1692,22404,33799.87
1693,22384,33819.84
1694,22376,33839.82
1695,22368,33859.79
1696,22364,33879.77
1697,22368,33899.75
1698,22380,33919.72
1699,22388,33939.70
1700,22400,33959.68
1701,22404,33979.65
1702,22404,33999.63
1703,22396,34019.61
1704,22392,34039.58
1705,22384,34059.56
1706,22388,34079.53
1707,22392,34099.51
1708,22404,34119.49
1709,22420,34139.46
1710,22432,34159.44
1711,22444,34179.42
1712,22460,34199.39
1713,22472,34219.37
1714,22480,34239.34
1715,22488,34259.32
1716,22496,34279.30
1717,22504,34299.27
1718,22512,34319.25
1719,22524,34339.23
1720,22532,34359.20
1721,22544,34379.18
1722,22556,34399.15
1723,22564,34419.13
1724,22576,34439.11
1725,22584,34459.08
1726,22600,34479.06
1727,22616,34499.04
1728,22624,34519.01
1729,22628,34538.99
1730,22604,34558.96
1731,22552,34578.94
1732,22476,34598.92
1733,22404,34618.89
1734,22340,34638.87
1735,22300,34658.85
1736,22272,34678.82
1737,22256,34698.80
1738,22252,34718.77
1739,22252,34738.75
1740,22248,34758.73
1741,22264,34778.70
1742,22276,34798.68
1743,22288,34818.66
1744,22296,34838.63
1745,22300,34858.61
1746,22296,34878.59
1747,22296,34898.56
1748,22296,34918.54
1749,22292,34938.51
1750,22304,34958.49
1751,22312,34978.47
1752,22324,34998.44
1753,22344,35018.42
1754,22360,35038.40
1755,22376,35058.37
1756,22392,35078.35
1757,22412,35098.32
1758,22424,35118.30
1759,22440,35138.28
1760,22452,35158.25
1761,22468,35178.23
1762,22480,35198.21
1763,22496,35218.18
1764,22516,35238.16
1765,22532,35258.13
1766,22540,35278.11
1767,22560,35298.09
1768,22572,35318.06
1769,22588,35338.04
1770,22600,35358.02
1771,22620,35377.99
1772,22636,35397.97
1773,22652,35417.94
1774,22668,35437.92
1775,22688,35457.90
1776,22700,35477.87
1777,22700,35497.85
1778,22668,35517.83
1779,22608,35537.80
1780,22520,35557.78
1781,22432,35577.75
1782,22360,35597.73
1783,22316,35617.71
1784,22284,35637.68
1785,22272,35657.66
1786,22260,35677.64
1787,22252,35697.61
1788,22252,35717.59
1789,22248,35737.57
1790,22256,35757.54
1791,22264,35777.52
1792,22276,35797.49
1793,22280,35817.47
1794,22292,35837.45
1795,22296,35857.42
1796,22296,35877.40
1797,22300,35897.38
1798,22304,35917.35
1799,22308,35937.33
1800,22320,35957.30
1801,22336,35977.28
1802,22348,35997.26
1803,22368,36017.23
1804,22380,36037.21
1805,22400,36057.19
1806,22412,36077.16
1807,22432,36097.14
1808,22444,36117.11
1809,22460,36137.09
1810,22480,36157.07
1811,22492,36177.04
1812,22512,36197.02
1813,22524,36217.00
1814,22540,36236.97
1815,22556,36256.95
1816,22568,36276.92
1817,22580,36296.90
1818,22600,36316.88
1819,22616,36336.85
1820,22636,36356.83
1821,22648,36376.81
1822,22664,36396.78
1823,22676,36416.76
1824,22692,36436.74
1825,22704,36456.71
1826,22720,36476.69
1827,22732,36496.66
1828,22752,36516.64
1829,22764,36536.62
1830,22772,36556.59
1831,22752,36576.57
1832,22700,36596.55
1833,22628,36616.52
1834,22552,36636.50
1835,22488,36656.47
1836,22432,36676.45
1837,22400,36696.43
1838,22384,36716.40
1839,22372,36736.38
1840,22360,36756.36
1841,22360,36776.33
1842,22360,36796.31
1843,22368,36816.28
1844,22372,36836.26
1845,22380,36856.24
1846,22388,36876.21
1847,22392,36896.19
1848,22388,36916.17
1849,22388,36936.14
1850,22392,36956.12
1851,22400,36976.09
1852,22412,36996.07
1853,22420,37016.05
1854,22440,37036.02
1855,22456,37056.00
1856,22472,37075.98
1857,22488,37095.95
1858,22500,37115.93
1859,22516,37135.90
1860,22532,37155.88
1861,22548,37175.86
1862,22560,37195.83
1863,22576,37215.81
1864,22588,37235.79
1865,22600,37255.76
1866,22616,37275.74
1867,22628,37295.72
1868,22640,37315.69
1869,22652,37335.67
1870,22664,37355.64
1871,22676,37375.62
1872,22688,37395.60
1873,22700,37415.57
1874,22716,37435.55
1875,22732,37455.53
1876,22736,37475.50
1877,22720,37495.48
1878,22676,37515.45
1879,22620,37535.43
1880,22552,37555.41
1881,22488,37575.38
1882,22444,37595.36
1883,22412,37615.34
1884,22400,37635.31
1885,22396,37655.29
1886,22400,37675.26
1887,22400,37695.24
1888,22412,37715.22
1889,22424,37735.19
1890,22436,37755.17
1891,22444,37775.15
1892,22444,37795.12
1893,22440,37815.10
1894,22436,37835.07
1895,22432,37855.05
1896,22428,37875.03
1897,22428,37895.00
1898,22436,37914.98
1899,22444,37934.96
1900,22452,37954.93
1901,22464,37974.91
1902,22472,37994.88
1903,22488,38014.86
1904,22500,38034.84
1905,22512,38054.81
1906,22524,38074.79
1907,22540,38094.77
1908,22548,38114.74
1909,22564,38134.72
1910,22576,38154.70
1911,22588,38174.67
1912,22604,38194.65
1913,22608,38214.62
1914,22620,38234.60
1915,22636,38254.58
1916,22652,38274.55
1917,22668,38294.53
1918,22680,38314.51
1919,22688,38334.48
1920,22672,38354.46
1921,22624,38374.43
1922,22556,38394.41
1923,22484,38414.39
1924,22424,38434.36
1925,22376,38454.34
1926,22344,38474.32
1927,22328,38494.29
1928,22320,38514.27
1929,22316,38534.24
1930,22312,38554.22
1931,22312,38574.20
1932,22324,38594.17
1933,22328,38614.15
1934,22336,38634.13
1935,22348,38654.10
1936,22344,38674.08
1937,22344,38694.05
1938,22340,38714.03
1939,22348,38734.01
1940,22348,38753.98
1941,22364,38773.96
1942,22368,38793.94
1943,22380,38813.91
1944,22396,38833.89
1945,22408,38853.86
1946,22428,38873.84
1947,22444,38893.82
1948,22460,38913.79
1949,22472,38933.77
1950,22492,38953.75
1951,22500,38973.72
1952,22512,38993.70
1953,22524,39013.68
1954,22536,39033.65
1955,22544,39053.63
1956,22548,39073.60
1957,22552,39093.58
1958,22556,39113.56
1959,22556,39133.53
1960,22560,39153.51
1961,22564,39173.49
1962,22564,39193.46
1963,22544,39213.44
1964,22504,39233.41
1965,22428,39253.39
1966,22336,39273.37
1967,22240,39293.34
1968,22144,39313.32
1969,22056,39333.30
1970,21992,39353.27
1971,21956,39373.25
1972,21920,39393.22
1973,21900,39413.20
1974,21872,39433.18
1975,21856,39453.15
1976,21840,39473.13
1977,21836,39493.11
1978,21840,39513.08
1979,21840,39533.06
1980,21836,39553.03
1981,21840,39573.01
1982,21832,39592.99
1983,21828,39612.96
1984,21824,39632.94
1985,21820,39652.92
1986,21820,39672.89
1987,21832,39692.87
1988,21844,39712.84
1989,21848,39732.82
1990,21860,39752.80
1991,21880,39772.77
1992,21892,39792.75
1993,21908,39812.73
1994,21924,39832.70
1995,21940,39852.68
1996,21956,39872.66
1997,21972,39892.63
1998,21988,39912.61
1999,22008,39932.58
2000,22020,39952.56
2001,22040,39972.54
2002,22060,39992.51
2003,22076,40012.49
2004,22084,40032.47
2005,22104,40052.44
2006,22120,40072.42
2007,22140,40092.39
2008,22160,40112.37
2009,22152,40132.35
2010,22120,40152.32
2011,22064,40172.30
2012,22008,40192.28
2013,21956,40212.25
2014,21916,40232.23
2015,21892,40252.20
2016,21876,40272.18
2017,21868,40292.16
2018,21864,40312.13
2019,21864,40332.11
2020,21868,40352.09
2021,21884,40372.06
2022,21892,40392.04
2023,21900,40412.01
2024,21904,40431.99
2025,21908,40451.97
2026,21908,40471.94
2027,21908,40491.92
2028,21912,40511.90
2029,21912,40531.87
2030,21912,40551.85
2031,21928,40571.83
2032,21944,40591.80
2033,21960,40611.78
2034,21984,40631.75
2035,22004,40651.73
2036,22024,40671.71
2037,22040,40691.68
2038,22064,40711.66
2039,22088,40731.64
2040,22108,40751.61
2041,22128,40771.59
2042,22152,40791.56
2043,22176,40811.54
2044,22200,40831.52
2045,22224,40851.49
2046,22248,40871.47
2047,22272,40891.45
2048,22288,40911.42
2049,22292,40931.40
2050,22272,40951.37
2051,22240,40971.35
2052,22192,40991.33
2053,22144,41011.30
2054,22112,41031.28
2055,22096,41051.26
2056,22088,41071.23
2057,22088,41091.21
2058,22092,41111.18
2059,22100,41131.16
2060,22112,41151.14
2061,22120,41171.11
2062,22132,41191.09
2063,22140,41211.07
2064,22136,41231.04
2065,22136,41251.02
2066,22136,41270.99
2067,22136,41290.97
2068,22136,41310.95
2069,22144,41330.92
2070,22152,41350.90
2071,22168,41370.88
2072,22184,41390.85
2073,22196,41410.83
2074,22216,41430.81
2075,22236,41450.78
2076,22256,41470.76
2077,22276,41490.73
2078,22296,41510.71
2079,22312,41530.69
2080,22324,41550.66
2081,22348,41570.64
2082,22360,41590.62
2083,22380,41610.59
2084,22392,41630.57
2085,22412,41650.54
2086,22428,41670.52
2087,22448,41690.50
2088,22460,41710.47
2089,22468,41730.45
2090,22456,41750.43
2091,22420,41770.40
2092,22372,41790.38
2093,22312,41810.35
2094,22260,41830.33
2095,22220,41850.31
2096,22200,41870.28
2097,22184,41890.26
2098,22176,41910.24
2099,22176,41930.21
2100,22172,41950.19
2101,22180,41970.16
2102,22188,41990.14
2103,22196,42010.12
2104,22208,42030.09
2105,22216,42050.07
2106,22216,42070.05
2107,22220,42090.02
2108,22216,42110.00
2109,22220,42129.97
2110,22220,42149.95
2111,22232,42169.93
2112,22244,42189.90
2113,22256,42209.88
2114,22268,42229.86
2115,22284,42249.83
2116,22300,42269.81
2117,22316,42289.79
2118,22328,42309.76
2119,22344,42329.74
2120,22356,42349.71
2121,22372,42369.69
2122,22388,42389.67
2123,22404,42409.64
2124,22416,42429.62
2125,22432,42449.60
2126,22448,42469.57
2127,22468,42489.55
2128,22476,42509.52
2129,22496,42529.50
2130,22512,42549.48
2131,22528,42569.45
2132,22544,42589.43
2133,22560,42609.41
2134,22580,42629.38
2135,22592,42649.36
2136,22612,42669.33
2137,22628,42689.31
2138,22636,42709.29
2139,22624,42729.26
2140,22588,42749.24
2141,22532,42769.22
2142,22468,42789.19
2143,22408,42809.17
2144,22360,42829.14
2145,22332,42849.12
2146,22312,42869.10
2147,22296,42889.07
2148,22284,42909.05
2149,22272,42929.03
2150,22272,42949.00
2151,22268,42968.98
2152,22272,42988.95
2153,22272,43008.93
2154,22276,43028.91
2155,22272,43048.88
2156,22272,43068.86
2157,22268,43088.84
2158,22268,43108.81
2159,22272,43128.79
2160,22272,43148.77
2161,22276,43168.74
2162,22288,43188.72
2163,22296,43208.69
2164,22316,43228.67
2165,22328,43248.65
2166,22340,43268.62
2167,22356,43288.60
2168,22368,43308.58
2169,22384,43328.55
2170,22396,43348.53
2171,22408,43368.50
2172,22416,43388.48
2173,22432,43408.46
2174,22440,43428.43
2175,22460,43448.41
2176,22476,43468.39
2177,22488,43488.36
2178,22504,43508.34
2179,22520,43528.31
2180,22536,43548.29
2181,22548,43568.27
2182,22564,43588.24
2183,22576,43608.22
2184,22588,43628.20
2185,22600,43648.17
2186,22600,43668.15
2187,22580,43688.12
2188,22540,43708.10
2189,22492,43728.08
2190,22436,43748.05
2191,22388,43768.03
2192,22352,43788.01
2193,22332,43807.98
2194,22320,43827.96
2195,22312,43847.93
2196,22308,43867.91
2197,22308,43887.89
2198,22316,43907.86
2199,22320,43927.84
2200,22328,43947.82
2201,22332,43967.79
2202,22328,43987.77
2203,22324,44007.75
2204,22320,44027.72
2205,22320,44047.70
2206,22316,44067.67
2207,22320,44087.65
2208,22320,44107.63
2209,22336,44127.60
2210,22340,44147.58
2211,22356,44167.56
2212,22364,44187.53
2213,22376,44207.51
2214,22392,44227.48
2215,22404,44247.46
2216,22416,44267.44
2217,22424,44287.41
2218,22436,44307.39
2219,22444,44327.37
2220,22460,44347.34
2221,22472,44367.32
2222,22480,44387.29
2223,22492,44407.27
2224,22508,44427.25
2225,22520,44447.22
2226,22528,44467.20
2227,22540,44487.18
2228,22540,44507.15
2229,22520,44527.13
2230,22480,44547.10
2231,22432,44567.08
2232,22376,44587.06
2233,22328,44607.03
2234,22300,44627.01
2235,22276,44646.99
2236,22264,44666.96
2237,22264,44686.94
2238,22260,44706.92
2239,22260,44726.89
2240,22268,44746.87
2241,22268,44766.84
2242,22272,44786.82
2243,22264,44806.80
2244,22260,44826.77
2245,22256,44846.75
2246,22252,44866.73
2247,22256,44886.70
2248,22256,44906.68
2249,22264,44926.65
2250,22272,44946.63
2251,22280,44966.61
2252,22292,44986.58
2253,22304,45006.56
2254,22316,45026.54
2255,22332,45046.51
2256,22348,45066.49
2257,22360,45086.46
2258,22376,45106.44
2259,22392,45126.42
2260,22404,45146.39
2261,22416,45166.37
2262,22424,45186.35
2263,22440,45206.32
2264,22452,45226.30
2265,22468,45246.27
2266,22480,45266.25
2267,22492,45286.23
2268,22504,45306.20
2269,22520,45326.18
2270,22512,45346.16
2271,22484,45366.13
2272,22436,45386.11
2273,22376,45406.08
2274,22316,45426.06
2275,22264,45446.04
2276,22232,45466.01
2277,22204,45485.99
2278,22192,45505.97
2279,22184,45525.94
2280,22180,45545.92
2281,22180,45565.90
2282,22180,45585.87
2283,22184,45605.85
2284,22188,45625.82
2285,22192,45645.80
2286,22196,45665.78
2287,22196,45685.75
2288,22192,45705.73
2289,22192,45725.71
2290,22188,45745.68
2291,22196,45765.66
2292,22200,45785.63
2293,22212,45805.61
2294,22228,45825.59
2295,22240,45845.56
2296,22252,45865.54
2297,22264,45885.52
2298,22276,45905.49
2299,22288,45925.47
2300,22300,45945.44
2301,22312,45965.42
2302,22328,45985.40
2303,22340,46005.37
2304,22356,46025.35
2305,22368,46045.33
2306,22384,46065.30
2307,22392,46085.28
2308,22408,46105.25
2309,22420,46125.23
2310,22432,46145.21
2311,22448,46165.18
2312,22464,46185.16
2313,22476,46205.14
2314,22492,46225.11
2315,22488,46245.09
2316,22464,46265.06
2317,22416,46285.04
2318,22356,46305.02
2319,22292,46324.99
2320,22236,46344.97
2321,22200,46364.95
2322,22176,46384.92
2323,22160,46404.90
2324,22148,46424.88
2325,22140,46444.85
2326,22132,46464.83
2327,22132,46484.80
2328,22136,46504.78
2329,22136,46524.76
2330,22132,46544.73
2331,22128,46564.71
2332,22124,46584.69
2333,22116,46604.66
2334,22112,46624.64
2335,22112,46644.61
2336,22112,46664.59
2337,22120,46684.57
2338,22132,46704.54
2339,22140,46724.52
2340,22156,46744.50
2341,22168,46764.47
2342,22184,46784.45
2343,22196,46804.42
2344,22212,46824.40
2345,22224,46844.38
2346,22236,46864.35
2347,22248,46884.33
2348,22260,46904.31
2349,22272,46924.28
2350,22288,46944.26
2351,22300,46964.23
2352,22316,46984.21
2353,22328,47004.19
2354,22340,47024.16
2355,22352,47044.14
2356,22368,47064.12
2357,22380,47084.09
2358,22396,47104.07
2359,22412,47124.04
2360,22428,47144.02
2361,22440,47164.00
2362,22428,47183.97
2363,22396,47203.95
2364,22348,47223.93
2365,22292,47243.90
2366,22236,47263.88
2367,22196,47283.86
2368,22172,47303.83
2369,22160,47323.81
2370,22156,47343.78
2371,22156,47363.76
2372,22160,47383.74
2373,22168,47403.71
2374,22176,47423.69
2375,22180,47443.67
2376,22184,47463.64
2377,22180,47483.62
2378,22180,47503.59
2379,22172,47523.57
2380,22168,47543.55
2381,22168,47563.52
2382,22172,47583.50
2383,22180,47603.48
2384,22188,47623.45
2385,22196,47643.43
2386,22212,47663.40
2387,22224,47683.38
2388,22236,47703.36
2389,22248,47723.33
2390,22260,47743.31
2391,22272,47763.29
2392,22280,47783.26
2393,22288,47803.24
2394,22308,47823.21
2395,22316,47843.19
2396,22328,47863.17
2397,22340,47883.14
2398,22348,47903.12
2399,22356,47923.10
2400,22368,47943.07
2401,22376,47963.05
2402,22388,47983.02
2403,22404,48003.00
2404,22420,48022.98
2405,22424,48042.95
2406,22420,48062.93
2407,22392,48082.91
2408,22340,48102.88
2409,22280,48122.86
2410,22220,48142.84
2411,22172,48162.81
2412,22136,48182.79
2413,22124,48202.76
2414,22116,48222.74
2415,22120,48242.72
2416,22120,48262.69
2417,22128,48282.67
2418,22136,48302.65
2419,22144,48322.62
2420,22152,48342.60
2421,22152,48362.57
2422,22148,48382.55
2423,22152,48402.53
2424,22144,48422.50
2425,22144,48442.48
2426,22148,48462.46
2427,22152,48482.43
2428,22164,48502.41
2429,22176,48522.38
2430,22192,48542.36
2431,22204,48562.34
2432,22216,48582.31
2433,22228,48602.29
2434,22240,48622.27
2435,22252,48642.24
2436,22264,48662.22
2437,22276,48682.19
2438,22292,48702.17
2439,22304,48722.15
2440,22316,48742.12
2441,22332,48762.10
2442,22340,48782.08
2443,22352,48802.05
2444,22364,48822.03
2445,22380,48842.01
2446,22392,48861.98
2447,22404,48881.96
2448,22416,48901.93
2449,22432,48921.91
2450,22448,48941.89
2451,22456,48961.86
2452,22436,48981.84
2453,22392,49001.82
2454,22328,49021.79
2455,22252,49041.77
2456,22184,49061.74
2457,22136,49081.72
2458,22104,49101.70
2459,22088,49121.67
2460,22084,49141.65
2461,22076,49161.63
2462,22072,49181.60
2463,22068,49201.58
2464,22076,49221.55
2465,22080,49241.53
2466,22092,49261.51
2467,22092,49281.48
2468,22088,49301.46
2469,22092,49321.44
2470,22088,49341.41
2471,22088,49361.39
2472,22092,49381.36
2473,22096,49401.34
2474,22108,49421.32
2475,22120,49441.29
2476,22136,49461.27
2477,22148,49481.25
2478,22160,49501.22
2479,22176,49521.20
2480,22188,49541.17
2481,22200,49561.15
2482,22216,49581.13
2483,22232,49601.10
2484,22248,49621.08
2485,22260,49641.06
2486,22268,49661.03
2487,22284,49681.01
2488,22296,49700.99
2489,22308,49720.96
2490,22320,49740.94
2491,22332,49760.91
2492,22344,49780.89
2493,22356,49800.87
2494,22372,49820.84
2495,22384,49840.82
2496,22400,49860.80
2497,22416,49880.77
2498,22428,49900.75
2499,22440,49920.72
2500,22428,49940.70
2501,22396,49960.68
2502,22332,49980.65
2503,22264,50000.63
2504,22196,50020.61
2505,22140,50040.58
2506,22108,50060.56
2507,22088,50080.53
2508,22076,50100.51
2509,22072,50120.49
2510,22068,50140.46
2511,22068,50160.44
2512,22076,50180.42
2513,22080,50200.39
2514,22088,50220.37
2515,22092,50240.34
2516,22092,50260.32
2517,22092,50280.30
2518,22088,50300.27
2519,22084,50320.25
2520,22088,50340.23
2521,22092,50360.20
2522,22100,50380.18
2523,22108,50400.15
2524,22124,50420.13
2525,22140,50440.11
2526,22156,50460.08
2527,22172,50480.06
2528,22184,50500.04
2529,22196,50520.01
2530,22212,50539.99
2531,22224,50559.97
2532,22236,50579.94
2533,22244,50599.92
2534,22256,50619.89
2535,22264,50639.87
2536,22280,50659.85
2537,22288,50679.82
2538,22300,50699.80
2539,22316,50719.78
2540,22328,50739.75
2541,22340,50759.73
2542,22356,50779.70
2543,22368,50799.68
2544,22364,50819.66
2545,22336,50839.63
2546,22284,50859.61
2547,22224,50879.59
2548,22168,50899.56
2549,22120,50919.54
2550,22092,50939.51
2551,22080,50959.49
2552,22080,50979.47
2553,22080,50999.44
2554,22088,51019.42
2555,22096,51039.40
2556,22108,51059.37
2557,22120,51079.35
2558,22128,51099.32
2559,22128,51119.30
2560,22120,51139.28
2561,22108,51159.25
2562,22108,51179.23
2563,22104,51199.21
2564,22112,51219.18
2565,22116,51239.16
2566,22128,51259.13
2567,22140,51279.11
2568,22144,51299.09
2569,22160,51319.06
2570,22176,51339.04
2571,22184,51359.02
2572,22200,51378.99
2573,22212,51398.97
2574,22224,51418.95
2575,22240,51438.92
2576,22248,51458.90
2577,22260,51478.87
2578,22268,51498.85
2579,22280,51518.83
2580,22292,51538.80
2581,22304,51558.78
2582,22316,51578.76
2583,22324,51598.73
2584,22336,51618.71
2585,22324,51638.68
2586,22280,51658.66
2587,22220,51678.64
2588,22152,51698.61
2589,22088,51718.59
2590,22036,51738.57
2591,22008,51758.54
2592,22000,51778.52
2593,21996,51798.49
2594,21996,51818.47
2595,21992,51838.45
2596,22000,51858.42
2597,22008,51878.40
2598,22020,51898.38
2599,22028,51918.35
2600,22036,51938.33
2601,22036,51958.30
2602,22036,51978.28
2603,22032,51998.26
2604,22032,52018.23
2605,22036,52038.21
2606,22044,52058.19
2607,22056,52078.16
2608,22068,52098.14
2609,22084,52118.11
2610,22100,52138.09
2611,22116,52158.07
2612,22128,52178.04
2613,22140,52198.02
2614,22152,52218.00
2615,22168,52237.97
2616,22180,52257.95
2617,22192,52277.93
2618,22200,52297.90
2619,22220,52317.88
2620,22228,52337.85
2621,22244,52357.83
2622,22248,52377.81
2623,22264,52397.78
2624,22276,52417.76
2625,22288,52437.74
2626,22296,52457.71
2627,22284,52477.69
2628,22244,52497.66
2629,22176,52517.64
2630,22104,52537.62
2631,22036,52557.59
2632,21988,52577.57
2633,21960,52597.55
2634,21944,52617.52
2635,21936,52637.50
2636,21940,52657.47
2637,21936,52677.45
2638,21940,52697.43
2639,21952,52717.40
2640,21964,52737.38
2641,21972,52757.36
2642,21984,52777.33
2643,21988,52797.31
2644,21992,52817.28
2645,21988,52837.26
2646,21988,52857.24
2647,21996,52877.21
2648,22004,52897.19
2649,22012,52917.17
2650,22028,52937.14
2651,22044,52957.12
2652,22056,52977.09
2653,22072,52997.07
2654,22088,53017.05
2655,22104,53037.02
2656,22112,53057.00
2657,22128,53076.98
2658,22140,53096.95
2659,22152,53116.93
2660,22164,53136.91
2661,22176,53156.88
2662,22188,53176.86
2663,22200,53196.83
2664,22212,53216.81
2665,22220,53236.79
2666,22236,53256.76
2667,22248,53276.74
2668,22264,53296.72
2669,22272,53316.69
2670,22288,53336.67
2671,22300,53356.64
2672,22280,53376.62
2673,22232,53396.60
2674,22168,53416.57
2675,22096,53436.55
2676,22036,53456.53
2677,21992,53476.50
2678,21964,53496.48
2679,21956,53516.45
2680,21952,53536.43
2681,21956,53556.41
2682,21960,53576.38
2683,21972,53596.36
2684,21984,53616.34
2685,21996,53636.31
2686,22004,53656.29
2687,22008,53676.26
2688,22004,53696.24
2689,22000,53716.22
2690,21996,53736.19
2691,21996,53756.17
2692,22000,53776.15
2693,22008,53796.12
2694,22020,53816.10
2695,22036,53836.08
2696,22048,53856.05
2697,22064,53876.03
2698,22080,53896.00
2699,22092,53915.98
2700,22104,53935.96
2701,22112,53955.93
2702,22120,53975.91
2703,22132,53995.89
2704,22140,54015.86
2705,22152,54035.84
2706,22164,54055.81
2707,22176,54075.79
2708,22184,54095.77
2709,22200,54115.74
2710,22208,54135.72
2711,22224,54155.70
2712,22232,54175.67
2713,22220,54195.65
2714,22184,54215.62
2715,22124,54235.60
2716,22060,54255.58
2717,22000,54275.55
2718,21960,54295.53
2719,21936,54315.51
2720,21928,54335.48
2721,21924,54355.46
2722,21928,54375.43
2723,21932,54395.41
2724,21944,54415.39
2725,21964,54435.36
2726,21980,54455.34
2727,21992,54475.32
2728,21992,54495.29
2729,21996,54515.27
2730,21992,54535.24
2731,21988,54555.22
2732,21992,54575.20
2733,21992,54595.17
2734,22004,54615.15
2735,22016,54635.13
2736,22036,54655.10
2737,22048,54675.08
2738,22064,54695.06
2739,22076,54715.03
2740,22092,54735.01
2741,22104,54754.98
2742,22120,54774.96
2743,22136,54794.94
2744,22144,54814.91
2745,22160,54834.89
2746,22168,54854.87
2747,22180,54874.84
2748,22188,54894.82
2749,22200,54914.79
2750,22212,54934.77
2751,22224,54954.75
2752,22228,54974.72
2753,22204,54994.70
2754,22148,55014.68
2755,22072,55034.65
2756,21996,55054.63
2757,21936,55074.60
2758,21892,55094.58
2759,21872,55114.56
2760,21864,55134.53
2761,21864,55154.51
2762,21864,55174.49
2763,21868,55194.46
2764,21872,55214.44
2765,21880,55234.41
2766,21900,55254.39
2767,21912,55274.37
2768,21920,55294.34
2769,21924,55314.32
2770,21928,55334.30
2771,21932,55354.27
2772,21932,55374.25
2773,21944,55394.22
2774,21952,55414.20
2775,21968,55434.18
2776,21980,55454.15
2777,21996,55474.13
2778,22008,55494.11
2779,22020,55514.08
2780,22040,55534.06
2781,22052,55554.04
2782,22068,55574.01
2783,22080,55593.99
2784,22092,55613.96
2785,22108,55633.94
2786,22124,55653.92
2787,22140,55673.89
2788,22148,55693.87
2789,22160,55713.85
2790,22176,55733.82
2791,22192,55753.80
2792,22204,55773.77
2793,22216,55793.75
2794,22216,55813.73
2795,22184,55833.70
2796,22124,55853.68
2797,22048,55873.66
2798,21972,55893.63
2799,21912,55913.61
2800,21872,55933.58
2801,21852,55953.56
2802,21844,55973.54
2803,21844,55993.51
2804,21848,56013.49
2805,21852,56033.47
2806,21860,56053.44
2807,21872,56073.42
2808,21884,56093.39
2809,21896,56113.37
2810,21900,56133.35
2811,21904,56153.32
2812,21908,56173.30
2813,21908,56193.28
2814,21912,56213.25
2815,21920,56233.23
2816,21932,56253.20
2817,21944,56273.18
2818,21956,56293.16
2819,21976,56313.13
2820,21988,56333.11
2821,22004,56353.09
2822,22016,56373.06
2823,22028,56393.04
2824,22040,56413.02
2825,22056,56432.99
2826,22068,56452.97
2827,22080,56472.94
2828,22092,56492.92
2829,22104,56512.90
2830,22112,56532.87
2831,22124,56552.85
2832,22132,56572.83
2833,22148,56592.80
2834,22160,56612.78
2835,22168,56632.75
2836,22148,56652.73
2837,22108,56672.71
2838,22040,56692.68
2839,21972,56712.66
2840,21916,56732.64
2841,21880,56752.61
2842,21860,56772.59
2843,21856,56792.56
2844,21860,56812.54
2845,21868,56832.52
2846,21884,56852.49
2847,21904,56872.47
2848,21920,56892.45
2849,21932,56912.42
2850,21940,56932.40
2851,21940,56952.37
2852,21940,56972.35
2853,21940,56992.33
2854,21936,57012.30
2855,21940,57032.28
2856,21944,57052.26
2857,21956,57072.23
2858,21972,57092.21
2859,21992,57112.18
2860,22008,57132.16
2861,22024,57152.14
2862,22036,57172.11
2863,22052,57192.09
2864,22060,57212.07
2865,22068,57232.04
2866,22080,57252.02
2867,22084,57272.00
2868,22092,57291.97
2869,22104,57311.95
2870,22112,57331.92
2871,22120,57351.90
2872,22132,57371.88
2873,22132,57391.85
2874,22124,57411.83
2875,22088,57431.81
2876,22028,57451.78
2877,21952,57471.76
2878,21888,57491.73
2879,21844,57511.71
2880,21816,57531.69
2881,21804,57551.66
2882,21808,57571.64
2883,21812,57591.62
2884,21824,57611.59
2885,21844,57631.57
2886,21860,57651.54
2887,21876,57671.52
2888,21888,57691.50
2889,21892,57711.47
2890,21892,57731.45
2891,21892,57751.43
2892,21896,57771.40
2893,21900,57791.38
2894,21908,57811.35
2895,21920,57831.33
2896,21936,57851.31
2897,21948,57871.28
2898,21968,57891.26
2899,21984,57911.24
2900,22000,57931.21
2901,22016,57951.19
2902,22036,57971.17
2903,22052,57991.14
2904,22064,58011.12
2905,22076,58031.09
2906,22088,58051.07
2907,22100,58071.05
2908,22112,58091.02
2909,22120,58111.00
2910,22132,58130.98
2911,22144,58150.95
2912,22148,58170.93
2913,22160,58190.90
2914,22156,58210.88
2915,22128,58230.86
2916,22064,58250.83
2917,21980,58270.81
2918,21900,58290.79
2919,21832,58310.76
2920,21788,58330.74
2921,21760,58350.71
2922,21748,58370.69
2923,21748,58390.67
2924,21748,58410.64
2925,21748,58430.62
2926,21756,58450.60
2927,21768,58470.57
2928,21784,58490.55
2929,21796,58510.52
2930,21812,58530.50
2931,21816,58550.48
2932,21816,58570.45
2933,21820,58590.43
2934,21824,58610.41
2935,21832,58630.38
2936,21848,58650.36
2937,21864,58670.33
2938,21884,58690.31
2939,21900,58710.29
2940,21920,58730.26
2941,21940,58750.24
2942,21956,58770.22
2943,21972,58790.19
2944,21992,58810.17
2945,22008,58830.15
2946,22020,58850.12
2947,22032,58870.10
2948,22044,58890.07
2949,22056,58910.05
2950,22068,58930.03
2951,22076,58950.00
2952,22088,58969.98
2953,22100,58989.96
2954,22112,59009.93
2955,22120,59029.91
2956,22124,59049.88
2957,22088,59069.86
2958,22028,59089.84
2959,21952,59109.81
2960,21872,59129.79
2961,21812,59149.77
2962,21772,59169.74
2963,21748,59189.72
2964,21740,59209.69
2965,21740,59229.67
2966,21740,59249.65
2967,21748,59269.62
2968,21760,59289.60
2969,21776,59309.58
2970,21792,59329.55
2971,21808,59349.53
2972,21812,59369.50
2973,21816,59389.48
2974,21816,59409.46
2975,21816,59429.43
2976,21816,59449.41
2977,21828,59469.39
2978,21840,59489.36
2979,21856,59509.34
2980,21872,59529.31
2981,21892,59549.29
2982,21912,59569.27
2983,21928,59589.24
2984,21948,59609.22
2985,21964,59629.20
2986,21976,59649.17
2987,21984,59669.15
2988,21996,59689.13
2989,22004,59709.10
2990,22012,59729.08
2991,22028,59749.05
2992,22040,59769.03
2993,22056,59789.01
2994,22064,59808.98
2995,22076,59828.96
2996,22080,59848.94
2997,22048,59868.91
2998,21992,59888.89
2999,21920,59908.86
