Sample_Index,IR_Value,Timestamp_ms
0,23760,0.00
1,23780,23.72
2,23800,47.43
3,23816,71.15
4,23832,94.86
5,23848,118.58
6,23872,142.29
7,23892,166.01
8,23912,189.72
9,23928,213.44
10,23948,237.15
11,23972,260.87
12,23996,284.58
13,24016,308.30
14,24032,332.01
15,24048,355.73
16,24068,379.44
17,24088,403.16
18,24108,426.87
19,24116,450.59
20,24120,474.30
21,24108,498.02
22,24088,521.73
23,24064,545.45
24,24040,569.16
25,24028,592.88
26,24016,616.59
27,24012,640.31
28,24020,664.02
29,24016,687.74
30,24028,711.45
31,24036,735.17
32,24044,758.88
33,24052,782.60
34,24056,806.31
35,24056,830.03
36,24064,853.74
37,24064,877.46
38,24068,901.17
39,24068,924.89
40,24072,948.60
41,24076,972.32
42,24080,996.03
43,24092,1019.75
44,24096,1043.47
45,24100,1067.18
46,24108,1090.90
47,24116,1114.61
48,24124,1138.33
49,24136,1162.04
50,24148,1185.76
51,24152,1209.47
52,24160,1233.19
53,24168,1256.90
54,24172,1280.62
55,24176,1304.33
56,24176,1328.05
57,24180,1351.76
58,24188,1375.48
59,24192,1399.19
60,24192,1422.91
61,24172,1446.62
62,24140,1470.34
63,24100,1494.05
64,24068,1517.77
65,24032,1541.48
66,24004,1565.20
67,23976,1588.91
68,23960,1612.63
69,23940,1636.34
70,23924,1660.06
71,23916,1683.77
72,23908,1707.49
73,23908,1731.20
74,23908,1754.92
75,23904,1778.63
76,23900,1802.35
77,23900,1826.06
78,23900,1849.78
79,23904,1873.49
80,23908,1897.21
81,23912,1920.92
82,23920,1944.64
83,23928,1968.35
84,23940,1992.07
85,23952,2015.78
86,23968,2039.50
87,23980,2063.22
88,24000,2086.93
89,24012,2110.65
90,24020,2134.36
91,24032,2158.08
92,24044,2181.79
93,24052,2205.51
94,24060,2229.22
95,24068,2252.94
96,24080,2276.65
97,24088,2300.37
98,24100,2324.08
99,24104,2347.80
100,24100,2371.51
101,24080,2395.23
102,24052,2418.94
103,24024,2442.66
104,23992,2466.37
105,23976,2490.09
106,23968,2513.80
107,23960,2537.52
108,23964,2561.23
109,23968,2584.95
110,23976,2608.66
111,23984,2632.38
112,23996,2656.09
113,24004,2679.81
114,24004,2703.52
115,24008,2727.24
116,24008,2750.95
117,24004,2774.67
118,24004,2798.38
119,24000,2822.10
120,23996,2845.81
121,23996,2869.53
122,24000,2893.24
123,24004,2916.96
124,24012,2940.67
125,24016,2964.39
126,24028,2988.10
127,24036,3011.82
128,24044,3035.53
129,24048,3059.25
130,24056,3082.97
131,24060,3106.68
132,24064,3130.40
133,24068,3154.11
134,24072,3177.83
135,24072,3201.54
136,24076,3225.26
137,24056,3248.97
138,24028,3272.69
139,23992,3296.40
140,23956,3320.12
141,23924,3343.83
142,23892,3367.55
143,23876,3391.26
144,23864,3414.98
145,23864,3438.69
146,23864,3462.41
147,23876,3486.12
148,23880,3509.84
149,23888,3533.55
150,23892,3557.27
151,23892,3580.98
152,23888,3604.70
153,23880,3628.41
154,23872,3652.13
155,23868,3675.84
156,23860,3699.56
157,23860,3723.27
158,23860,3746.99
159,23868,3770.70
160,23868,3794.42
161,23876,3818.13
162,23884,3841.85
163,23888,3865.56
164,23896,3889.28
165,23908,3912.99
166,23916,3936.71
167,23924,3960.42
168,23932,3984.14
169,23928,4007.85
170,23916,4031.57
171,23880,4055.28
172,23832,4079.00
173,23780,4102.72
174,23728,4126.43
175,23696,4150.15
176,23676,4173.86
177,23664,4197.58
178,23656,4221.29
179,23660,4245.01
180,23668,4268.72
181,23676,4292.44
182,23680,4316.15
183,23676,4339.87
184,23672,4363.58
185,23664,4387.30
186,23652,4411.01
187,23644,4434.73
188,23640,4458.44
189,23640,4482.16
190,23640,4505.87
191,23648,4529.59
192,23656,4553.30
193,23664,4577.02
194,23668,4600.73
195,23680,4624.45
196,23696,4648.16
197,23712,4671.88
198,23724,4695.59
199,23736,4719.31
200,23728,4743.02
201,23704,4766.74
202,23652,4790.45
203,23592,4814.17
204,23532,4837.88
205,23480,4861.60
206,23448,4885.31
207,23432,4909.03
208,23420,4932.74
209,23420,4956.46
210,23420,4980.17
211,23428,5003.89
212,23432,5027.60
213,23436,5051.32
214,23440,5075.03
215,23444,5098.75
216,23448,5122.47
217,23444,5146.18
218,23448,5169.90
219,23448,5193.61
220,23448,5217.33
221,23456,5241.04
222,23460,5264.76
223,23472,5288.47
224,23488,5312.19
225,23504,5335.90
226,23516,5359.62
227,23532,5383.33
228,23552,5407.05
229,23568,5430.76
230,23580,5454.48
231,23592,5478.19
232,23576,5501.91
233,23536,5525.62
234,23484,5549.34
235,23424,5573.05
236,23372,5596.77
237,23340,5620.48
238,23324,5644.20
239,23320,5667.91
240,23316,5691.63
241,23320,5715.34
242,23324,5739.06
243,23336,5762.77
244,23356,5786.49
245,23368,5810.20
246,23388,5833.92
247,23404,5857.63
248,23412,5881.35
249,23424,5905.06
250,23432,5928.78
251,23440,5952.49
252,23448,5976.21
253,23468,5999.92
254,23480,6023.64
255,23500,6047.35
256,23524,6071.07
257,23548,6094.78
258,23568,6118.50
259,23588,6142.22
260,23604,6165.93
261,23624,6189.65
262,23644,6213.36
263,23664,6237.08
264,23688,6260.79
265,23712,6284.51
266,23724,6308.22
267,23732,6331.94
268,23712,6355.65
269,23680,6379.37
270,23644,6403.08
271,23612,6426.80
272,23592,6450.51
273,23580,6474.23
274,23584,6497.94
275,23592,6521.66
276,23592,6545.37
277,23604,6569.09
278,23616,6592.80
279,23628,6616.52
280,23644,6640.23
281,23656,6663.95
282,23664,6687.66
283,23672,6711.38
284,23680,6735.09
285,23680,6758.81
286,23692,6782.52
287,23700,6806.24
288,23708,6829.95
289,23724,6853.67
290,23740,6877.38
291,23752,6901.10
292,23768,6924.81
293,23788,6948.53
294,23804,6972.24
295,23824,6995.96
296,23836,7019.67
297,23856,7043.39
298,23876,7067.10
299,23896,7090.82
300,23912,7114.53
301,23932,7138.25
302,23944,7161.97
303,23960,7185.68
304,23980,7209.40
305,24000,7233.11
306,24016,7256.83
307,24020,7280.54
308,24012,7304.26
309,23996,7327.97
310,23976,7351.69
311,23956,7375.40
312,23940,7399.12
313,23928,7422.83
314,23928,7446.55
315,23932,7470.26
316,23944,7493.98
317,23952,7517.69
318,23960,7541.41
319,23968,7565.12
320,23980,7588.84
321,23984,7612.55
322,23996,7636.27
323,24004,7659.98
324,24008,7683.70
325,24016,7707.41
326,24020,7731.13
327,24032,7754.84
328,24040,7778.56
329,24056,7802.27
330,24068,7825.99
331,24076,7849.70
332,24088,7873.42
333,24100,7897.13
334,24116,7920.85
335,24132,7944.56
336,24148,7968.28
337,24164,7991.99
338,24172,8015.71
339,24184,8039.42
340,24200,8063.14
341,24212,8086.85
342,24224,8110.57
343,24240,8134.28
344,24256,8158.00
345,24264,8181.72
346,24268,8205.43
347,24264,8229.15
348,24252,8252.86
349,24236,8276.58
350,24224,8300.29
351,24224,8324.01
352,24220,8347.72
353,24224,8371.44
354,24236,8395.15
355,24244,8418.87
356,24252,8442.58
357,24264,8466.30
358,24276,8490.01
359,24284,8513.73
360,24292,8537.44
361,24300,8561.16
362,24308,8584.87
363,24312,8608.59
364,24316,8632.30
365,24320,8656.02
366,24328,8679.73
367,24336,8703.45
368,24340,8727.16
369,24348,8750.88
370,24356,8774.59
371,24364,8798.31
372,24384,8822.02
373,24392,8845.74
374,24404,8869.45
375,24412,8893.17
376,24424,8916.88
377,24428,8940.60
378,24436,8964.31
379,24448,8988.03
380,24456,9011.74
381,24456,9035.46
382,24448,9059.17
383,24440,9082.89
384,24428,9106.60
385,24416,9130.32
386,24412,9154.03
387,24412,9177.75
388,24412,9201.47
389,24416,9225.18
390,24424,9248.90
391,24428,9272.61
392,24440,9296.33
393,24444,9320.04
394,24452,9343.76
395,24456,9367.47
396,24456,9391.19
397,24456,9414.90
398,24456,9438.62
399,24460,9462.33
400,24464,9486.05
401,24464,9509.76
402,24472,9533.48
403,24480,9557.19
404,24488,9580.91
405,24492,9604.62
406,24500,9628.34
407,24504,9652.05
408,24508,9675.77
409,24512,9699.48
410,24516,9723.20
411,24524,9746.91
412,24532,9770.63
413,24536,9794.34
414,24528,9818.06
415,24516,9841.77
416,24496,9865.49
417,24484,9889.20
418,24472,9912.92
419,24468,9936.63
420,24468,9960.35
421,24468,9984.06
422,24468,10007.78
423,24472,10031.49
424,24480,10055.21
425,24484,10078.92
426,24488,10102.64
427,24496,10126.35
428,24496,10150.07
429,24496,10173.78
430,24496,10197.50
431,24500,10221.21
432,24504,10244.93
433,24504,10268.65
434,24512,10292.36
435,24516,10316.08
436,24516,10339.79
437,24516,10363.51
438,24520,10387.22
439,24520,10410.94
440,24520,10434.65
441,24524,10458.37
442,24520,10482.08
443,24516,10505.80
444,24516,10529.51
445,24508,10553.23
446,24488,10576.94
447,24460,10600.66
448,24432,10624.37
449,24400,10648.09
450,24380,10671.80
451,24356,10695.52
452,24340,10719.23
453,24324,10742.95
454,24316,10766.66
455,24308,10790.38
456,24304,10814.09
457,24300,10837.81
458,24300,10861.52
459,24304,10885.24
460,24304,10908.95
461,24304,10932.67
462,24300,10956.38
463,24296,10980.10
464,24288,11003.81
465,24280,11027.53
466,24280,11051.24
467,24276,11074.96
468,24276,11098.67
469,24276,11122.39
470,24272,11146.10
471,24276,11169.82
472,24276,11193.53
473,24276,11217.25
474,24280,11240.96
475,24284,11264.68
476,24292,11288.40
477,24296,11312.11
478,24312,11335.83
479,24320,11359.54
480,24328,11383.26
481,24332,11406.97
482,24328,11430.69
483,24316,11454.40
484,24288,11478.12
485,24264,11501.83
486,24240,11525.55
487,24224,11549.26
488,24216,11572.98
489,24208,11596.69
490,24208,11620.41
491,24208,11644.12
492,24212,11667.84
493,24216,11691.55
494,24220,11715.27
495,24224,11738.98
496,24232,11762.70
497,24240,11786.41
498,24248,11810.13
499,24252,11833.84
500,24252,11857.56
501,24260,11881.27
502,24264,11904.99
503,24272,11928.70
504,24288,11952.42
505,24292,11976.13
506,24308,11999.85
507,24316,12023.56
508,24332,12047.28
509,24348,12070.99
510,24356,12094.71
511,24372,12118.42
512,24380,12142.14
513,24388,12165.85
514,24408,12189.57
515,24416,12213.28
516,24428,12237.00
517,24444,12260.71
518,24452,12284.43
519,24468,12308.15
520,24480,12331.86
521,24496,12355.58
522,24500,12379.29
523,24512,12403.01
524,24524,12426.72
525,24540,12450.44
526,24548,12474.15
527,24548,12497.87
528,24544,12521.58
529,24528,12545.30
530,24512,12569.01
531,24496,12592.73
532,24488,12616.44
533,24484,12640.16
534,24484,12663.87
535,24488,12687.59
536,24488,12711.30
537,24496,12735.02
538,24504,12758.73
539,24512,12782.45
540,24516,12806.16
541,24524,12829.88
542,24532,12853.59
543,24540,12877.31
544,24544,12901.02
545,24552,12924.74
546,24560,12948.45
547,24564,12972.17
548,24572,12995.88
549,24576,13019.60
550,24592,13043.31
551,24596,13067.03
552,24604,13090.74
553,24616,13114.46
554,24624,13138.17
555,24636,13161.89
556,24644,13185.60
557,24652,13209.32
558,24664,13233.03
559,24672,13256.75
560,24684,13280.46
561,24688,13304.18
562,24700,13327.90
563,24704,13351.61
564,24712,13375.33
565,24716,13399.04
566,24728,13422.76
567,24736,13446.47
568,24744,13470.19
569,24756,13493.90
570,24760,13517.62
571,24772,13541.33
572,24780,13565.05
573,24784,13588.76
574,24780,13612.48
575,24772,13636.19
576,24764,13659.91
577,24756,13683.62
578,24752,13707.34
579,24756,13731.05
580,24756,13754.77
581,24764,13778.48
582,24768,13802.20
583,24776,13825.91
584,24780,13849.63
585,24788,13873.34
586,24796,13897.06
587,24804,13920.77
588,24812,13944.49
589,24816,13968.20
590,24820,13991.92
591,24828,14015.63
592,24828,14039.35
593,24836,14063.06
594,24840,14086.78
595,24844,14110.49
596,24852,14134.21
597,24864,14157.92
598,24868,14181.64
599,24880,14205.35
600,24888,14229.07
601,24892,14252.78
602,24900,14276.50
603,24904,14300.21
604,24908,14323.93
605,24916,14347.65
606,24924,14371.36
607,24928,14395.08
608,24936,14418.79
609,24944,14442.51
610,24948,14466.22
611,24956,14489.94
612,24964,14513.65
613,24972,14537.37
614,24976,14561.08
615,24980,14584.80
616,24976,14608.51
617,24972,14632.23
618,24968,14655.94
619,24964,14679.66
620,24968,14703.37
621,24972,14727.09
622,24976,14750.80
623,24988,14774.52
624,24992,14798.23
625,24996,14821.95
626,25008,14845.66
627,25012,14869.38
628,25020,14893.09
629,25028,14916.81
630,25032,14940.52
631,25040,14964.24
632,25040,14987.95
633,25040,15011.67
634,25044,15035.38
635,25048,15059.10
636,25052,15082.81
637,25060,15106.53
638,25068,15130.24
639,25076,15153.96
640,25080,15177.67
641,25088,15201.39
642,25092,15225.10
643,25100,15248.82
644,25100,15272.53
645,25104,15296.25
646,25108,15319.96
647,25112,15343.68
648,25112,15367.40
649,25120,15391.11
650,25124,15414.83
651,25132,15438.54
652,25140,15462.26
653,25136,15485.97
654,25128,15509.69
655,25124,15533.40
656,25120,15557.12
657,25116,15580.83
658,25120,15604.55
659,25124,15628.26
660,25128,15651.98
661,25140,15675.69
662,25144,15699.41
663,25156,15723.12
664,25156,15746.84
665,25164,15770.55
666,25168,15794.27
667,25172,15817.98
668,25172,15841.70
669,25176,15865.41
670,25180,15889.13
671,25184,15912.84
672,25188,15936.56
673,25192,15960.27
674,25196,15983.99
675,25204,16007.70
676,25208,16031.42
677,25208,16055.13
678,25220,16078.85
679,25224,16102.56
680,25228,16126.28
681,25232,16149.99
682,25236,16173.71
683,25236,16197.42
684,25240,16221.14
685,25240,16244.85
686,25244,16268.57
687,25240,16292.28
688,25232,16316.00
689,25220,16339.71
690,25220,16363.43
691,25220,16387.15
692,25224,16410.86
693,25228,16434.58
694,25228,16458.29
695,25236,16482.01
696,25236,16505.72
697,25240,16529.44
698,25244,16553.15
699,25252,16576.87
700,25256,16600.58
701,25260,16624.30
702,25264,16648.01
703,25264,16671.73
704,25264,16695.44
705,25268,16719.16
706,25268,16742.87
707,25276,16766.59
708,25280,16790.30
709,25284,16814.02
710,25292,16837.73
711,25296,16861.45
712,25304,16885.16
713,25308,16908.88
714,25312,16932.59
715,25312,16956.31
716,25316,16980.02
717,25316,17003.74
718,25320,17027.45
719,25324,17051.17
720,25316,17074.88
721,25308,17098.60
722,25300,17122.31
723,25296,17146.03
724,25296,17169.74
725,25292,17193.46
726,25296,17217.17
727,25296,17240.89
728,25296,17264.60
729,25300,17288.32
730,25300,17312.03
731,25304,17335.75
732,25308,17359.46
733,25308,17383.18
734,25308,17406.90
735,25308,17430.61
736,25308,17454.33
737,25308,17478.04
738,25312,17501.76
739,25316,17525.47
740,25320,17549.19
741,25324,17572.90
742,25328,17596.62
743,25332,17620.33
744,25340,17644.05
745,25340,17667.76
746,25348,17691.48
747,25352,17715.19
748,25356,17738.91
749,25360,17762.62
750,25364,17786.34
751,25368,17810.05
752,25372,17833.77
753,25376,17857.48
754,25376,17881.20
755,25368,17904.91
756,25360,17928.63
757,25352,17952.34
758,25348,17976.06
759,25344,17999.77
760,25344,18023.49
761,25344,18047.20
762,25348,18070.92
763,25344,18094.63
764,25344,18118.35
765,25344,18142.06
766,25340,18165.78
767,25344,18189.49
768,25344,18213.21
769,25348,18236.92
770,25344,18260.64
771,25348,18284.35
772,25340,18308.07
773,25340,18331.78
774,25344,18355.50
775,25344,18379.21
776,25348,18402.93
777,25356,18426.65
778,25356,18450.36
779,25356,18474.08
780,25364,18497.79
781,25364,18521.51
782,25368,18545.22
783,25368,18568.94
784,25376,18592.65
785,25376,18616.37
786,25384,18640.08
787,25388,18663.80
788,25392,18687.51
789,25396,18711.23
790,25400,18734.94
791,25400,18758.66
792,25408,18782.37
793,25408,18806.09
794,25412,18829.80
795,25408,18853.52
796,25400,18877.23
797,25388,18900.95
798,25384,18924.66
799,25376,18948.38
800,25368,18972.09
801,25364,18995.81
802,25368,19019.52
803,25368,19043.24
804,25364,19066.95
805,25360,19090.67
806,25364,19114.38
807,25360,19138.10
808,25360,19161.81
809,25360,19185.53
810,25364,19209.24
811,25360,19232.96
812,25360,19256.67
813,25352,19280.39
814,25352,19304.10
815,25348,19327.82
816,25348,19351.53
817,25352,19375.25
818,25356,19398.96
819,25360,19422.68
820,25360,19446.40
821,25364,19470.11
822,25364,19493.83
823,25368,19517.54
824,25372,19541.26
825,25372,19564.97
826,25376,19588.69
827,25380,19612.40
828,25384,19636.12
829,25388,19659.83
830,25392,19683.55
831,25392,19707.26
832,25392,19730.98
833,25392,19754.69
834,25396,19778.41
835,25396,19802.12
836,25400,19825.84
837,25404,19849.55
838,25408,19873.27
839,25412,19896.98
840,25404,19920.70
841,25396,19944.41
842,25384,19968.13
843,25368,19991.84
844,25356,20015.56
845,25348,20039.27
846,25340,20062.99
847,25340,20086.70
848,25336,20110.42
849,25340,20134.13
850,25340,20157.85
851,25336,20181.56
852,25336,20205.28
853,25332,20228.99
854,25332,20252.71
855,25332,20276.42
856,25328,20300.14
857,25324,20323.85
858,25324,20347.57
859,25324,20371.28
860,25324,20395.00
861,25320,20418.71
862,25324,20442.43
863,25324,20466.15
864,25328,20489.86
865,25328,20513.58
866,25332,20537.29
867,25336,20561.01
868,25336,20584.72
869,25340,20608.44
870,25340,20632.15
871,25344,20655.87
872,25344,20679.58
873,25344,20703.30
874,25348,20727.01
875,25348,20750.73
876,25352,20774.44
877,25352,20798.16
878,25356,20821.87
879,25360,20845.59
880,25360,20869.30
881,25356,20893.02
882,25364,20916.73
883,25360,20940.45
884,25356,20964.16
885,25348,20987.88
886,25336,21011.59
887,25320,21035.31
888,25308,21059.02
889,25296,21082.74
890,25288,21106.45
891,25276,21130.17
892,25276,21153.88
893,25276,21177.60
894,25268,21201.31
895,25272,21225.03
896,25272,21248.74
897,25276,21272.46
898,25276,21296.17
899,25272,21319.89
900,25272,21343.60
901,25268,21367.32
902,25264,21391.03
903,25260,21414.75
904,25260,21438.46
905,25256,21462.18
906,25260,21485.90
907,25256,21509.61
908,25260,21533.33
909,25264,21557.04
910,25264,21580.76
911,25264,21604.47
912,25264,21628.19
913,25268,21651.90
914,25268,21675.62
915,25268,21699.33
916,25272,21723.05
917,25276,21746.76
918,25276,21770.48
919,25276,21794.19
920,25276,21817.91
921,25276,21841.62
922,25276,21865.34
923,25276,21889.05
924,25272,21912.77
925,25256,21936.48
926,25244,21960.20
927,25228,21983.91
928,25216,22007.63
929,25200,22031.34
930,25192,22055.06
931,25188,22078.77
932,25184,22102.49
933,25184,22126.20
934,25188,22149.92
935,25188,22173.63
936,25192,22197.35
937,25192,22221.06
938,25188,22244.78
939,25188,22268.49
940,25184,22292.21
941,25180,22315.92
942,25172,22339.64
943,25172,22363.35
944,25168,22387.07
945,25168,22410.78
946,25172,22434.50
947,25172,22458.21
948,25176,22481.93
949,25176,22505.65
950,25180,22529.36
951,25180,22553.08
952,25176,22576.79
953,25180,22600.51
954,25188,22624.22
955,25188,22647.94
956,25188,22671.65
957,25192,22695.37
958,25188,22719.08
959,25180,22742.80
960,25164,22766.51
961,25140,22790.23
962,25120,22813.94
963,25100,22837.66
964,25092,22861.37
965,25080,22885.09
966,25076,22908.80
967,25076,22932.52
968,25080,22956.23
969,25080,22979.95
970,25076,23003.66
971,25076,23027.38
972,25076,23051.09
973,25080,23074.81
974,25072,23098.52
975,25064,23122.24
976,25060,23145.95
977,25056,23169.67
978,25056,23193.38
979,25052,23217.10
980,25048,23240.81
981,25052,23264.53
982,25056,23288.24
983,25052,23311.96
984,25056,23335.67
985,25056,23359.39
986,25060,23383.10
987,25064,23406.82
988,25064,23430.53
989,25064,23454.25
990,25060,23477.96
991,25048,23501.68
992,25028,23525.40
993,25008,23549.11
994,24988,23572.83
995,24972,23596.54
996,24960,23620.26
997,24948,23643.97
998,24948,23667.69
999,24948,23691.40
1000,24944,23715.12
1001,24944,23738.83
1002,24944,23762.55
1003,24944,23786.26
1004,24940,23809.98
1005,24940,23833.69
1006,24932,23857.41
1007,24928,23881.12
1008,24920,23904.84
1009,24912,23928.55
1010,24912,23952.27
1011,24908,23975.98
1012,24908,23999.70
1013,24916,24023.41
1014,24920,24047.13
1015,24924,24070.84
1016,24924,24094.56
1017,24928,24118.27
1018,24928,24141.99
1019,24932,24165.70
1020,24928,24189.42
1021,24916,24213.13
1022,24892,24236.85
1023,24864,24260.56
1024,24836,24284.28
1025,24812,24307.99
1026,24796,24331.71
1027,24784,24355.42
1028,24772,24379.14
1029,24768,24402.85
1030,24764,24426.57
1031,24760,24450.28
1032,24760,24474.00
1033,24756,24497.71
1034,24760,24521.43
1035,24756,24545.15
1036,24752,24568.86
1037,24740,24592.58
1038,24728,24616.29
1039,24720,24640.01
1040,24712,24663.72
1041,24708,24687.44
1042,24708,24711.15
1043,24704,24734.87
1044,24704,24758.58
1045,24704,24782.30
1046,24704,24806.01
1047,24708,24829.73
1048,24712,24853.44
1049,24716,24877.16
1050,24712,24900.87
1051,24696,24924.59
1052,24668,24948.30
1053,24632,24972.02
1054,24596,24995.73
1055,24564,25019.45
1056,24532,25043.16
1057,24516,25066.88
1058,24500,25090.59
1059,24492,25114.31
1060,24488,25138.02
1061,24488,25161.74
1062,24484,25185.45
1063,24484,25209.17
1064,24484,25232.88
1065,24484,25256.60
1066,24484,25280.31
1067,24476,25304.03
1068,24468,25327.74
1069,24464,25351.46
1070,24460,25375.17
1071,24456,25398.89
1072,24456,25422.60
1073,24456,25446.32
1074,24464,25470.03
1075,24472,25493.75
1076,24472,25517.46
1077,24480,25541.18
1078,24488,25564.90
1079,24496,25588.61
1080,24492,25612.33
1081,24500,25636.04
1082,24504,25659.76
1083,24504,25683.47
1084,24500,25707.19
1085,24480,25730.90
1086,24448,25754.62
1087,24400,25778.33
1088,24356,25802.05
1089,24316,25825.76
1090,24284,25849.48
1091,24260,25873.19
1092,24248,25896.91
1093,24236,25920.62
1094,24232,25944.34
1095,24232,25968.05
1096,24228,25991.77
1097,24228,26015.48
1098,24232,26039.20
1099,24228,26062.91
1100,24228,26086.63
1101,24228,26110.34
1102,24224,26134.06
1103,24220,26157.77
1104,24220,26181.49
1105,24220,26205.20
1106,24228,26228.92
1107,24232,26252.63
1108,24240,26276.35
1109,24244,26300.06
1110,24252,26323.78
1111,24264,26347.49
1112,24280,26371.21
1113,24288,26394.92
1114,24300,26418.64
1115,24304,26442.35
1116,24316,26466.07
1117,24324,26489.78
1118,24336,26513.50
1119,24344,26537.21
1120,24348,26560.93
1121,24360,26584.65
1122,24364,26608.36
1123,24372,26632.08
1124,24380,26655.79
1125,24388,26679.51
1126,24396,26703.22
1127,24404,26726.94
1128,24408,26750.65
1129,24412,26774.37
1130,24396,26798.08
1131,24364,26821.80
1132,24320,26845.51
1133,24268,26869.23
1134,24220,26892.94
1135,24180,26916.66
1136,24156,26940.37
1137,24140,26964.09
1138,24132,26987.80
1139,24128,27011.52
1140,24120,27035.23
1141,24124,27058.95
1142,24124,27082.66
1143,24132,27106.38
1144,24136,27130.09
1145,24140,27153.81
1146,24140,27177.52
1147,24140,27201.24
1148,24132,27224.95
1149,24136,27248.67
1150,24136,27272.38
1151,24140,27296.10
1152,24148,27319.81
1153,24156,27343.53
1154,24164,27367.24
1155,24172,27390.96
1156,24188,27414.67
1157,24196,27438.39
1158,24208,27462.10
1159,24216,27485.82
1160,24228,27509.53
1161,24236,27533.25
1162,24248,27556.96
1163,24260,27580.68
1164,24272,27604.40
1165,24276,27628.11
1166,24288,27651.83
1167,24296,27675.54
1168,24300,27699.26
1169,24308,27722.97
1170,24312,27746.69
1171,24320,27770.40
1172,24336,27794.12
1173,24336,27817.83
1174,24324,27841.55
1175,24296,27865.26
1176,24256,27888.98
1177,24208,27912.69
1178,24164,27936.41
1179,24136,27960.12
1180,24112,27983.84
1181,24104,28007.55
1182,24100,28031.27
1183,24096,28054.98
1184,24108,28078.70
1185,24108,28102.41
1186,24112,28126.13
1187,24120,28149.84
1188,24128,28173.56
1189,24124,28197.27
1190,24124,28220.99
1191,24120,28244.70
1192,24116,28268.42
1193,24112,28292.13
1194,24112,28315.85
1195,24116,28339.56
1196,24120,28363.28
1197,24128,28386.99
1198,24132,28410.71
1199,24140,28434.42
1200,24144,28458.14
1201,24156,28481.85
1202,24168,28505.57
1203,24180,28529.28
1204,24184,28553.00
1205,24192,28576.71
1206,24196,28600.43
1207,24204,28624.15
1208,24212,28647.86
1209,24216,28671.58
1210,24224,28695.29
1211,24228,28719.01
1212,24236,28742.72
1213,24244,28766.44
1214,24248,28790.15
1215,24244,28813.87
1216,24228,28837.58
1217,24204,28861.30
1218,24164,28885.01
1219,24120,28908.73
1220,24080,28932.44
1221,24048,28956.16
1222,24036,28979.87
1223,24024,29003.59
1224,24020,29027.30
1225,24020,29051.02
1226,24020,29074.73
1227,24028,29098.45
1228,24032,29122.16
1229,24036,29145.88
1230,24040,29169.59
1231,24036,29193.31
1232,24036,29217.02
1233,24032,29240.74
1234,24028,29264.45
1235,24024,29288.17
1236,24028,29311.88
1237,24024,29335.60
1238,24028,29359.31
1239,24032,29383.03
1240,24040,29406.74
1241,24052,29430.46
1242,24056,29454.17
1243,24068,29477.89
1244,24080,29501.60
1245,24088,29525.32
1246,24092,29549.03
1247,24100,29572.75
1248,24108,29596.46
1249,24120,29620.18
1250,24124,29643.89
1251,24132,29667.61
1252,24140,29691.33
1253,24148,29715.04
1254,24160,29738.76
1255,24168,29762.47
1256,24176,29786.19
1257,24188,29809.90
1258,24184,29833.62
1259,24164,29857.33
1260,24132,29881.05
1261,24088,29904.76
1262,24044,29928.48
1263,24020,29952.19
1264,23996,29975.91
1265,23980,29999.62
1266,23984,30023.34
1267,23980,30047.05
1268,23988,30070.77
1269,24000,30094.48
1270,24004,30118.20
1271,24020,30141.91
1272,24028,30165.63
1273,24028,30189.34
1274,24024,30213.06
1275,24024,30236.77
1276,24016,30260.49
1277,24012,30284.20
1278,24012,30307.92
1279,24012,30331.63
1280,24016,30355.35
1281,24028,30379.06
1282,24032,30402.78
1283,24044,30426.49
1284,24052,30450.21
1285,24064,30473.92
1286,24076,30497.64
1287,24088,30521.35
1288,24096,30545.07
1289,24108,30568.78
1290,24120,30592.50
1291,24132,30616.21
1292,24140,30639.93
1293,24156,30663.64
1294,24164,30687.36
1295,24176,30711.08
1296,24184,30734.79
1297,24180,30758.51
1298,24164,30782.22
1299,24140,30805.94
1300,24104,30829.65
1301,24072,30853.37
1302,24048,30877.08
1303,24024,30900.80
1304,24020,30924.51
1305,24020,30948.23
1306,24024,30971.94
1307,24032,30995.66
1308,24048,31019.37
1309,24064,31043.09
1310,24076,31066.80
1311,24084,31090.52
1312,24088,31114.23
1313,24088,31137.95
1314,24084,31161.66
1315,24084,31185.38
1316,24072,31209.09
1317,24072,31232.81
1318,24072,31256.52
1319,24076,31280.24
1320,24084,31303.95
1321,24092,31327.67
1322,24104,31351.38
1323,24116,31375.10
1324,24124,31398.81
1325,24132,31422.53
1326,24140,31446.24
1327,24156,31469.96
1328,24168,31493.67
1329,24176,31517.39
1330,24184,31541.10
1331,24200,31564.82
1332,24208,31588.53
1333,24220,31612.25
1334,24224,31635.96
1335,24212,31659.68
1336,24196,31683.39
1337,24160,31707.11
1338,24132,31730.83
1339,24104,31754.54
1340,24080,31778.26
1341,24068,31801.97
1342,24064,31825.69
1343,24064,31849.40
1344,24072,31873.12
1345,24080,31896.83
1346,24092,31920.55
1347,24108,31944.26
1348,24120,31967.98
1349,24124,31991.69
1350,24124,32015.41
1351,24120,32039.12
1352,24120,32062.84
1353,24112,32086.55
1354,24112,32110.27
1355,24104,32133.98
1356,24112,32157.70
1357,24112,32181.41
1358,24120,32205.13
1359,24132,32228.84
1360,24136,32252.56
1361,24152,32276.27
1362,24160,32299.99
1363,24168,32323.70
1364,24176,32347.42
1365,24180,32371.13
1366,24188,32394.85
1367,24204,32418.56
1368,24212,32442.28
1369,24220,32465.99
1370,24224,32489.71
1371,24208,32513.42
1372,24180,32537.14
1373,24140,32560.85
1374,24100,32584.57
1375,24064,32608.28
1376,24040,32632.00
1377,24028,32655.71
1378,24024,32679.43
1379,24028,32703.14
1380,24040,32726.86
1381,24048,32750.58
1382,24060,32774.29
1383,24072,32798.01
1384,24084,32821.72
1385,24084,32845.44
1386,24084,32869.15
1387,24084,32892.87
1388,24076,32916.58
1389,24072,32940.30
1390,24076,32964.01
1391,24072,32987.73
1392,24076,33011.44
1393,24076,33035.16
1394,24080,33058.87
1395,24092,33082.59
1396,24096,33106.30
1397,24100,33130.02
1398,24108,33153.73
1399,24116,33177.45
1400,24124,33201.16
1401,24136,33224.88
1402,24140,33248.59
1403,24148,33272.31
1404,24156,33296.02
1405,24168,33319.74
1406,24176,33343.45
1407,24188,33367.17
1408,24196,33390.88
1409,24204,33414.60
1410,24216,33438.31
1411,24228,33462.03
1412,24240,33485.74
1413,24248,33509.46
1414,24232,33533.17
1415,24196,33556.89
1416,24144,33580.60
1417,24096,33604.32
1418,24044,33628.03
1419,24004,33651.75
1420,23984,33675.46
1421,23972,33699.18
1422,23972,33722.89
1423,23972,33746.61
1424,23984,33770.33
1425,23988,33794.04
1426,23996,33817.76
1427,24008,33841.47
1428,24012,33865.19
1429,24012,33888.90
1430,24012,33912.62
1431,24004,33936.33
1432,24000,33960.05
1433,23996,33983.76
1434,23996,34007.48
1435,23996,34031.19
1436,24000,34054.91
1437,24008,34078.62
1438,24016,34102.34
1439,24020,34126.05
1440,24028,34149.77
1441,24040,34173.48
1442,24048,34197.20
1443,24060,34220.91
1444,24068,34244.63
1445,24080,34268.34
1446,24088,34292.06
1447,24100,34315.77
1448,24108,34339.49
1449,24116,34363.20
1450,24124,34386.92
1451,24132,34410.63
1452,24140,34434.35
1453,24148,34458.06
1454,24136,34481.78
1455,24108,34505.49
1456,24064,34529.21
1457,24012,34552.92
1458,23956,34576.64
1459,23916,34600.35
1460,23888,34624.07
1461,23880,34647.78
1462,23876,34671.50
1463,23872,34695.21
1464,23884,34718.93
1465,23896,34742.64
1466,23908,34766.36
1467,23916,34790.08
1468,23920,34813.79
1469,23924,34837.51
1470,23920,34861.22
1471,23920,34884.94
1472,23916,34908.65
1473,23908,34932.37
1474,23912,34956.08
1475,23912,34979.80
1476,23916,35003.51
1477,23924,35027.23
1478,23936,35050.94
1479,23944,35074.66
1480,23948,35098.37
1481,23964,35122.09
1482,23972,35145.80
1483,23984,35169.52
1484,23996,35193.23
1485,24004,35216.95
1486,24016,35240.66
1487,24024,35264.38
1488,24036,35288.09
1489,24040,35311.81
1490,24048,35335.52
1491,24060,35359.24
1492,24064,35382.95
1493,24056,35406.67
1494,24028,35430.38
1495,23988,35454.10
1496,23940,35477.81
1497,23892,35501.53
1498,23860,35525.24
1499,23836,35548.96
1500,23828,35572.67
1501,23824,35596.39
1502,23836,35620.10
1503,23848,35643.82
1504,23860,35667.53
1505,23876,35691.25
1506,23888,35714.96
1507,23892,35738.68
1508,23892,35762.39
1509,23888,35786.11
1510,23880,35809.83
1511,23872,35833.54
1512,23868,35857.26
1513,23868,35880.97
1514,23872,35904.69
1515,23872,35928.40
1516,23876,35952.12
1517,23888,35975.83
1518,23892,35999.55
1519,23904,36023.26
1520,23912,36046.98
1521,23924,36070.69
1522,23932,36094.41
1523,23940,36118.12
1524,23952,36141.84
1525,23964,36165.55
1526,23976,36189.27
1527,23980,36212.98
1528,23992,36236.70
1529,24000,36260.41
1530,23996,36284.13
1531,23968,36307.84
1532,23936,36331.56
1533,23892,36355.27
1534,23848,36378.99
1535,23816,36402.70
1536,23796,36426.42
1537,23784,36450.13
1538,23788,36473.85
1539,23792,36497.56
1540,23804,36521.28
1541,23820,36544.99
1542,23836,36568.71
1543,23848,36592.42
1544,23860,36616.14
1545,23860,36639.85
1546,23856,36663.57
1547,23848,36687.28
1548,23848,36711.00
1549,23840,36734.71
1550,23836,36758.43
1551,23844,36782.14
1552,23848,36805.86
1553,23852,36829.58
1554,23868,36853.29
1555,23876,36877.01
1556,23884,36900.72
1557,23896,36924.44
1558,23904,36948.15
1559,23912,36971.87
1560,23916,36995.58
1561,23924,37019.30
1562,23932,37043.01
1563,23944,37066.73
1564,23952,37090.44
1565,23956,37114.16
1566,23944,37137.87
1567,23916,37161.59
1568,23868,37185.30
1569,23824,37209.02
1570,23784,37232.73
1571,23760,37256.45
1572,23744,37280.16
1573,23744,37303.88
1574,23752,37327.59
1575,23760,37351.31
1576,23780,37375.02
1577,23796,37398.74
1578,23812,37422.45
1579,23820,37446.17
1580,23824,37469.88
1581,23816,37493.60
1582,23808,37517.31
1583,23808,37541.03
1584,23800,37564.74
1585,23796,37588.46
1586,23800,37612.17
1587,23804,37635.89
1588,23812,37659.60
1589,23820,37683.32
1590,23824,37707.03
1591,23836,37730.75
1592,23848,37754.46
1593,23852,37778.18
1594,23868,37801.89
1595,23876,37825.61
1596,23888,37849.33
1597,23900,37873.04
1598,23904,37896.76
1599,23896,37920.47
1600,23868,37944.19
1601,23828,37967.90
1602,23788,37991.62
1603,23748,38015.33
1604,23716,38039.05
1605,23704,38062.76
1606,23700,38086.48
1607,23704,38110.19
1608,23712,38133.91
1609,23724,38157.62
1610,23740,38181.34
1611,23752,38205.05
1612,23760,38228.77
1613,23764,38252.48
1614,23760,38276.20
1615,23752,38299.91
1616,23740,38323.63
1617,23736,38347.34
1618,23736,38371.06
1619,23740,38394.77
1620,23744,38418.49
1621,23752,38442.20
1622,23756,38465.92
1623,23768,38489.63
1624,23780,38513.35
1625,23792,38537.06
1626,23804,38560.78
1627,23816,38584.49
1628,23824,38608.21
1629,23832,38631.92
1630,23828,38655.64
1631,23804,38679.35
1632,23768,38703.07
1633,23724,38726.78
1634,23688,38750.50
1635,23656,38774.21
1636,23632,38797.93
1637,23624,38821.64
1638,23624,38845.36
1639,23636,38869.08
1640,23648,38892.79
1641,23668,38916.51
1642,23676,38940.22
1643,23688,38963.94
1644,23688,38987.65
1645,23688,39011.37
1646,23684,39035.08
1647,23672,39058.80
1648,23668,39082.51
1649,23660,39106.23
1650,23664,39129.94
1651,23664,39153.66
1652,23672,39177.37
1653,23680,39201.09
1654,23688,39224.80
1655,23696,39248.52
1656,23704,39272.23
1657,23720,39295.95
1658,23728,39319.66
1659,23744,39343.38
1660,23744,39367.09
1661,23736,39390.81
1662,23704,39414.52
1663,23656,39438.24
1664,23608,39461.95
1665,23560,39485.67
1666,23532,39509.38
1667,23520,39533.10
1668,23512,39556.81
1669,23516,39580.53
1670,23528,39604.24
1671,23540,39627.96
1672,23560,39651.67
1673,23576,39675.39
1674,23584,39699.10
1675,23584,39722.82
1676,23576,39746.53
1677,23564,39770.25
1678,23556,39793.96
1679,23544,39817.68
1680,23544,39841.39
1681,23544,39865.11
1682,23544,39888.83
1683,23552,39912.54
1684,23560,39936.26
1685,23572,39959.97
1686,23584,39983.69
1687,23592,40007.40
1688,23604,40031.12
1689,23612,40054.83
1690,23620,40078.55
1691,23632,40102.26
1692,23628,40125.98
1693,23616,40149.69
1694,23572,40173.41
1695,23512,40197.12
1696,23456,40220.84
1697,23408,40244.55
1698,23372,40268.27
1699,23360,40291.98
1700,23356,40315.70
1701,23364,40339.41
1702,23372,40363.13
1703,23388,40386.84
1704,23408,40410.56
1705,23420,40434.27
1706,23428,40457.99
1707,23428,40481.70
1708,23420,40505.42
1709,23408,40529.13
1710,23400,40552.85
1711,23396,40576.56
1712,23392,40600.28
1713,23396,40623.99
1714,23408,40647.71
1715,23420,40671.42
1716,23436,40695.14
1717,23448,40718.85
1718,23460,40742.57
1719,23472,40766.28
1720,23488,40790.00
1721,23492,40813.71
1722,23500,40837.43
1723,23508,40861.14
1724,23512,40884.86
1725,23520,40908.58
1726,23528,40932.29
1727,23540,40956.01
1728,23536,40979.72
1729,23508,41003.44
1730,23456,41027.15
1731,23388,41050.87
1732,23320,41074.58
1733,23268,41098.30
1734,23240,41122.01
1735,23228,41145.73
1736,23228,41169.44
1737,23236,41193.16
1738,23248,41216.87
1739,23260,41240.59
1740,23276,41264.30
1741,23292,41288.02
1742,23296,41311.73
1743,23296,41335.45
1744,23292,41359.16
1745,23284,41382.88
1746,23276,41406.59
1747,23276,41430.31
1748,23280,41454.02
1749,23288,41477.74
1750,23300,41501.45
1751,23316,41525.17
1752,23328,41548.88
1753,23344,41572.60
1754,23364,41596.31
1755,23380,41620.03
1756,23396,41643.74
1757,23404,41667.46
1758,23428,41691.17
1759,23440,41714.89
1760,23452,41738.60
1761,23464,41762.32
1762,23476,41786.03
1763,23480,41809.75
1764,23492,41833.46
1765,23504,41857.18
1766,23512,41880.89
1767,23528,41904.61
1768,23540,41928.33
1769,23552,41952.04
1770,23572,41975.76
1771,23580,41999.47
1772,23596,42023.19
1773,23600,42046.90
1774,23572,42070.62
1775,23512,42094.33
1776,23432,42118.05
1777,23352,42141.76
1778,23288,42165.48
1779,23240,42189.19
1780,23220,42212.91
1781,23216,42236.62
1782,23216,42260.34
1783,23224,42284.05
1784,23232,42307.77
1785,23244,42331.48
1786,23256,42355.20
1787,23264,42378.91
1788,23268,42402.63
1789,23268,42426.34
1790,23268,42450.06
1791,23260,42473.77
1792,23256,42497.49
1793,23256,42521.20
1794,23256,42544.92
1795,23264,42568.63
1796,23280,42592.35
1797,23292,42616.06
1798,23308,42639.78
1799,23328,42663.49
1800,23344,42687.21
1801,23356,42710.92
1802,23368,42734.64
1803,23384,42758.35
1804,23396,42782.07
1805,23408,42805.78
1806,23416,42829.50
1807,23428,42853.21
1808,23436,42876.93
1809,23448,42900.64
1810,23456,42924.36
1811,23468,42948.08
1812,23480,42971.79
1813,23488,42995.51
1814,23500,43019.22
1815,23512,43042.94
1816,23524,43066.65
1817,23532,43090.37
1818,23532,43114.08
1819,23492,43137.80
1820,23432,43161.51
1821,23352,43185.23
1822,23280,43208.94
1823,23228,43232.66
1824,23196,43256.37
1825,23188,43280.09
1826,23184,43303.80
1827,23196,43327.52
1828,23208,43351.23
1829,23220,43374.95
1830,23240,43398.66
1831,23252,43422.38
1832,23264,43446.09
1833,23268,43469.81
1834,23268,43493.52
1835,23264,43517.24
1836,23260,43540.95
1837,23256,43564.67
1838,23264,43588.38
1839,23272,43612.10
1840,23284,43635.81
1841,23300,43659.53
1842,23316,43683.24
1843,23332,43706.96
1844,23352,43730.67
1845,23364,43754.39
1846,23376,43778.10
1847,23396,43801.82
1848,23404,43825.53
1849,23416,43849.25
1850,23432,43872.96
1851,23440,43896.68
1852,23452,43920.39
1853,23464,43944.11
1854,23472,43967.83
1855,23484,43991.54
1856,23492,44015.26
1857,23500,44038.97
1858,23512,44062.69
1859,23524,44086.40
1860,23536,44110.12
1861,23552,44133.83
1862,23568,44157.55
1863,23564,44181.26
1864,23536,44204.98
1865,23476,44228.69
1866,23396,44252.41
1867,23324,44276.12
1868,23260,44299.84
1869,23224,44323.55
1870,23204,44347.27
1871,23208,44370.98
1872,23220,44394.70
1873,23236,44418.41
1874,23256,44442.13
1875,23272,44465.84
1876,23288,44489.56
1877,23292,44513.27
1878,23296,44536.99
1879,23296,44560.70
1880,23284,44584.42
1881,23276,44608.13
1882,23276,44631.85
1883,23276,44655.56
1884,23280,44679.28
1885,23292,44702.99
1886,23304,44726.71
1887,23316,44750.42
1888,23332,44774.14
1889,23344,44797.85
1890,23356,44821.57
1891,23372,44845.28
1892,23384,44869.00
1893,23396,44892.71
1894,23416,44916.43
1895,23420,44940.14
1896,23432,44963.86
1897,23440,44987.58
1898,23452,45011.29
1899,23460,45035.01
1900,23476,45058.72
1901,23484,45082.44
1902,23492,45106.15
1903,23508,45129.87
1904,23516,45153.58
1905,23528,45177.30
1906,23544,45201.01
1907,23552,45224.73
1908,23540,45248.44
1909,23496,45272.16
1910,23432,45295.87
1911,23360,45319.59
1912,23292,45343.30
1913,23248,45367.02
1914,23228,45390.73
1915,23224,45414.45
1916,23232,45438.16
1917,23248,45461.88
1918,23264,45485.59
1919,23288,45509.31
1920,23304,45533.02
1921,23316,45556.74
1922,23324,45580.45
1923,23320,45604.17
1924,23312,45627.88
1925,23304,45651.60
1926,23296,45675.31
1927,23288,45699.03
1928,23288,45722.74
1929,23296,45746.46
1930,23304,45770.17
1931,23320,45793.89
1932,23340,45817.60
1933,23356,45841.32
1934,23372,45865.03
1935,23380,45888.75
1936,23396,45912.46
1937,23404,45936.18
1938,23420,45959.89
1939,23432,45983.61
1940,23448,46007.33
1941,23456,46031.04
1942,23464,46054.76
1943,23476,46078.47
1944,23484,46102.19
1945,23492,46125.90
1946,23508,46149.62
1947,23520,46173.33
1948,23532,46197.05
1949,23544,46220.76
1950,23560,46244.48
1951,23560,46268.19
1952,23548,46291.91
1953,23500,46315.62
1954,23436,46339.34
1955,23368,46363.05
1956,23312,46386.77
1957,23276,46410.48
1958,23264,46434.20
1959,23264,46457.91
1960,23280,46481.63
1961,23300,46505.34
1962,23320,46529.06
1963,23340,46552.77
1964,23360,46576.49
1965,23368,46600.20
1966,23372,46623.92
1967,23364,46647.63
1968,23352,46671.35
1969,23340,46695.06
1970,23336,46718.78
1971,23332,46742.49
1972,23336,46766.21
1973,23344,46789.92
1974,23356,46813.64
1975,23368,46837.35
1976,23384,46861.07
1977,23400,46884.78
1978,23420,46908.50
1979,23432,46932.21
1980,23448,46955.93
1981,23464,46979.64
1982,23476,47003.36
1983,23492,47027.08
1984,23500,47050.79
1985,23512,47074.51
1986,23520,47098.22
1987,23532,47121.94
1988,23540,47145.65
1989,23552,47169.37
1990,23564,47193.08
1991,23564,47216.80
1992,23544,47240.51
1993,23500,47264.23
1994,23440,47287.94
1995,23380,47311.66
1996,23332,47335.37
1997,23300,47359.09
1998,23292,47382.80
1999,23292,47406.52
2000,23308,47430.23
2001,23328,47453.95
2002,23352,47477.66
2003,23376,47501.38
2004,23396,47525.09
2005,23408,47548.81
2006,23404,47572.52
2007,23400,47596.24
2008,23388,47619.95
2009,23376,47643.67
2010,23372,47667.38
2011,23372,47691.10
2012,23376,47714.81
2013,23384,47738.53
2014,23396,47762.24
2015,23408,47785.96
2016,23424,47809.67
2017,23440,47833.39
2018,23456,47857.10
2019,23472,47880.82
2020,23488,47904.53
2021,23504,47928.25
2022,23512,47951.96
2023,23528,47975.68
2024,23540,47999.39
2025,23548,48023.11
2026,23556,48046.83
2027,23552,48070.54
2028,23524,48094.26
2029,23468,48117.97
2030,23408,48141.69
2031,23352,48165.40
2032,23304,48189.12
2033,23280,48212.83
2034,23272,48236.55
2035,23280,48260.26
2036,23296,48283.98
2037,23316,48307.69
2038,23340,48331.41
2039,23364,48355.12
2040,23380,48378.84
2041,23388,48402.55
2042,23384,48426.27
2043,23380,48449.98
2044,23368,48473.70
2045,23352,48497.41
2046,23352,48521.13
2047,23348,48544.84
2048,23356,48568.56
2049,23368,48592.27
2050,23380,48615.99
2051,23396,48639.70
2052,23408,48663.42
2053,23424,48687.13
2054,23440,48710.85
2055,23448,48734.56
2056,23460,48758.28
2057,23476,48781.99
2058,23488,48805.71
2059,23492,48829.42
2060,23468,48853.14
2061,23420,48876.85
2062,23356,48900.57
2063,23288,48924.28
2064,23236,48948.00
2065,23208,48971.71
2066,23196,48995.43
2067,23196,49019.14
2068,23208,49042.86
2069,23228,49066.58
2070,23252,49090.29
2071,23280,49114.01
2072,23300,49137.72
2073,23312,49161.44
2074,23312,49185.15
2075,23300,49208.87
2076,23288,49232.58
2077,23272,49256.30
2078,23268,49280.01
2079,23268,49303.73
2080,23276,49327.44
2081,23284,49351.16
2082,23304,49374.87
2083,23320,49398.59
2084,23332,49422.30
2085,23348,49446.02
2086,23356,49469.73
2087,23364,49493.45
2088,23376,49517.16
2089,23384,49540.88
2090,23392,49564.59
2091,23400,49588.31
2092,23388,49612.02
2093,23340,49635.74
2094,23268,49659.45
2095,23188,49683.17
2096,23124,49706.88
2097,23084,49730.60
2098,23060,49754.31
2099,23060,49778.03
2100,23068,49801.74
2101,23080,49825.46
2102,23096,49849.17
2103,23120,49872.89
2104,23140,49896.60
2105,23152,49920.32
2106,23156,49944.03
2107,23148,49967.75
2108,23140,49991.46
2109,23124,50015.18
2110,23120,50038.89
2111,23124,50062.61
2112,23128,50086.32
2113,23144,50110.04
2114,23160,50133.76
2115,23176,50157.47
2116,23192,50181.19
2117,23208,50204.90
2118,23228,50228.62
2119,23244,50252.33
2120,23256,50276.05
2121,23272,50299.76
2122,23288,50323.48
2123,23296,50347.19
2124,23308,50370.91
2125,23320,50394.62
2126,23328,50418.34
2127,23336,50442.05
2128,23348,50465.77
2129,23356,50489.48
2130,23360,50513.20
2131,23336,50536.91
2132,23280,50560.63
2133,23196,50584.34
2134,23108,50608.06
2135,23040,50631.77
2136,22996,50655.49
2137,22976,50679.20
2138,22968,50702.92
2139,22976,50726.63
2140,22984,50750.35
2141,22992,50774.06
2142,23004,50797.78
2143,23020,50821.49
2144,23028,50845.21
2145,23040,50868.92
2146,23048,50892.64
2147,23044,50916.35
2148,23044,50940.07
2149,23048,50963.78
2150,23048,50987.50
2151,23060,51011.21
2152,23076,51034.93
2153,23088,51058.64
2154,23108,51082.36
2155,23128,51106.07
2156,23148,51129.79
2157,23164,51153.51
2158,23180,51177.22
2159,23196,51200.94
2160,23212,51224.65
2161,23228,51248.37
2162,23240,51272.08
2163,23256,51295.80
2164,23264,51319.51
2165,23276,51343.23
2166,23288,51366.94
2167,23296,51390.66
2168,23308,51414.37
2169,23320,51438.09
2170,23328,51461.80
2171,23340,51485.52
2172,23348,51509.23
2173,23364,51532.95
2174,23360,51556.66
2175,23316,51580.38
2176,23240,51604.09
2177,23144,51627.81
2178,23060,51651.52
2179,23004,51675.24
2180,22972,51698.95
2181,22956,51722.67
2182,22960,51746.38
2183,22968,51770.10
2184,22972,51793.81
2185,22984,51817.53
2186,23000,51841.24
2187,23012,51864.96
2188,23028,51888.67
2189,23032,51912.39
2190,23036,51936.10
2191,23032,51959.82
2192,23036,51983.53
2193,23036,52007.25
2194,23048,52030.96
2195,23056,52054.68
2196,23072,52078.39
2197,23088,52102.11
2198,23112,52125.82
2199,23132,52149.54
2200,23152,52173.26
2201,23164,52196.97
2202,23184,52220.69
2203,23200,52244.40
2204,23208,52268.12
2205,23216,52291.83
2206,23228,52315.55
2207,23236,52339.26
2208,23244,52362.98
2209,23248,52386.69
2210,23256,52410.41
2211,23264,52434.12
2212,23272,52457.84
2213,23284,52481.55
2214,23296,52505.27
2215,23308,52528.98
2216,23320,52552.70
2217,23332,52576.41
2218,23344,52600.13
2219,23352,52623.84
2220,23324,52647.56
2221,23268,52671.27
2222,23184,52694.99
2223,23104,52718.70
2224,23032,52742.42
2225,22992,52766.13
2226,22968,52789.85
2227,22968,52813.56
2228,22972,52837.28
2229,22988,52860.99
2230,22996,52884.71
2231,23012,52908.42
2232,23028,52932.14
2233,23040,52955.85
2234,23048,52979.57
2235,23056,53003.28
2236,23052,53027.00
2237,23048,53050.71
2238,23048,53074.43
2239,23048,53098.14
2240,23052,53121.86
2241,23068,53145.57
2242,23084,53169.29
2243,23100,53193.01
2244,23120,53216.72
2245,23140,53240.44
2246,23156,53264.15
2247,23168,53287.87
2248,23180,53311.58
2249,23196,53335.30
2250,23208,53359.01
2251,23220,53382.73
2252,23228,53406.44
2253,23236,53430.16
2254,23248,53453.87
2255,23260,53477.59
2256,23272,53501.30
2257,23284,53525.02
2258,23288,53548.73
2259,23300,53572.45
2260,23312,53596.16
2261,23328,53619.88
2262,23340,53643.59
2263,23356,53667.31
2264,23368,53691.02
2265,23364,53714.74
2266,23324,53738.45
2267,23256,53762.17
2268,23176,53785.88
2269,23104,53809.60
2270,23056,53833.31
2271,23028,53857.03
2272,23020,53880.74
2273,23028,53904.46
2274,23040,53928.17
2275,23060,53951.89
2276,23080,53975.60
2277,23096,53999.32
2278,23112,54023.03
2279,23116,54046.75
2280,23120,54070.46
2281,23120,54094.18
2282,23116,54117.89
2283,23112,54141.61
2284,23116,54165.32
2285,23120,54189.04
2286,23128,54212.76
2287,23140,54236.47
2288,23156,54260.19
2289,23176,54283.90
2290,23188,54307.62
2291,23204,54331.33
2292,23224,54355.05
2293,23232,54378.76
2294,23248,54402.48
2295,23264,54426.19
2296,23272,54449.91
2297,23284,54473.62
2298,23292,54497.34
2299,23300,54521.05
2300,23312,54544.77
2301,23316,54568.48
2302,23328,54592.20
2303,23340,54615.91
2304,23352,54639.63
2305,23364,54663.34
2306,23380,54687.06
2307,23396,54710.77
2308,23412,54734.49
2309,23432,54758.20
2310,23436,54781.92
2311,23412,54805.63
2312,23352,54829.35
2313,23284,54853.06
2314,23216,54876.78
2315,23168,54900.49
2316,23140,54924.21
2317,23136,54947.92
2318,23144,54971.64
2319,23160,54995.35
2320,23180,55019.07
2321,23204,55042.78
2322,23228,55066.50
2323,23248,55090.21
2324,23260,55113.93
2325,23260,55137.64
2326,23252,55161.36
2327,23236,55185.07
2328,23228,55208.79
2329,23220,55232.51
2330,23220,55256.22
2331,23224,55279.94
2332,23232,55303.65
2333,23244,55327.37
2334,23260,55351.08
2335,23280,55374.80
2336,23296,55398.51
2337,23312,55422.23
2338,23324,55445.94
2339,23340,55469.66
2340,23348,55493.37
2341,23360,55517.09
2342,23368,55540.80
2343,23376,55564.52
2344,23384,55588.23
2345,23396,55611.95
2346,23408,55635.66
2347,23416,55659.38
2348,23428,55683.09
2349,23444,55706.81
2350,23452,55730.52
2351,23468,55754.24
2352,23468,55777.95
2353,23448,55801.67
2354,23396,55825.38
2355,23336,55849.10
2356,23276,55872.81
2357,23224,55896.53
2358,23204,55920.24
2359,23196,55943.96
2360,23204,55967.67
2361,23220,55991.39
2362,23240,56015.10
2363,23268,56038.82
2364,23296,56062.53
2365,23312,56086.25
2366,23332,56109.96
2367,23328,56133.68
2368,23324,56157.39
2369,23308,56181.11
2370,23300,56204.82
2371,23292,56228.54
2372,23288,56252.26
2373,23292,56275.97
2374,23304,56299.69
2375,23312,56323.40
2376,23332,56347.12
2377,23348,56370.83
2378,23364,56394.55
2379,23384,56418.26
2380,23400,56441.98
2381,23416,56465.69
2382,23420,56489.41
2383,23428,56513.12
2384,23440,56536.84
2385,23452,56560.55
2386,23452,56584.27
2387,23464,56607.98
2388,23476,56631.70
2389,23488,56655.41
2390,23500,56679.13
2391,23504,56702.84
2392,23480,56726.56
2393,23432,56750.27
2394,23360,56773.99
2395,23296,56797.70
2396,23244,56821.42
2397,23208,56845.13
2398,23196,56868.85
2399,23196,56892.56
2400,23212,56916.28
2401,23228,56939.99
2402,23252,56963.71
2403,23280,56987.42
2404,23300,57011.14
2405,23312,57034.85
2406,23320,57058.57
2407,23312,57082.28
2408,23300,57106.00
2409,23288,57129.71
2410,23280,57153.43
2411,23276,57177.14
2412,23280,57200.86
2413,23288,57224.57
2414,23300,57248.29
2415,23320,57272.01
2416,23332,57295.72
2417,23348,57319.44
2418,23368,57343.15
2419,23384,57366.87
2420,23396,57390.58
2421,23408,57414.30
2422,23416,57438.01
2423,23428,57461.73
2424,23436,57485.44
2425,23444,57509.16
2426,23456,57532.87
2427,23448,57556.59
2428,23412,57580.30
2429,23352,57604.02
2430,23272,57627.73
2431,23204,57651.45
2432,23152,57675.16
2433,23124,57698.88
2434,23112,57722.59
2435,23120,57746.31
2436,23132,57770.02
2437,23156,57793.74
2438,23184,57817.45
2439,23204,57841.17
2440,23228,57864.88
2441,23240,57888.60
2442,23240,57912.31
2443,23228,57936.03
2444,23220,57959.74
2445,23212,57983.46
2446,23204,58007.17
2447,23204,58030.89
2448,23212,58054.60
2449,23224,58078.32
2450,23240,58102.03
2451,23260,58125.75
2452,23276,58149.46
2453,23292,58173.18
2454,23308,58196.89
2455,23324,58220.61
2456,23340,58244.32
2457,23348,58268.04
2458,23364,58291.76
2459,23372,58315.47
2460,23384,58339.19
2461,23388,58362.90
2462,23396,58386.62
2463,23380,58410.33
2464,23328,58434.05
2465,23252,58457.76
2466,23172,58481.48
2467,23096,58505.19
2468,23040,58528.91
2469,23016,58552.62
2470,23012,58576.34
2471,23020,58600.05
2472,23036,58623.77
2473,23052,58647.48
2474,23076,58671.20
2475,23100,58694.91
2476,23120,58718.63
2477,23132,58742.34
2478,23136,58766.06
2479,23140,58789.77
2480,23132,58813.49
2481,23128,58837.20
2482,23128,58860.92
2483,23136,58884.63
2484,23148,58908.35
2485,23164,58932.06
2486,23184,58955.78
2487,23208,58979.49
2488,23232,59003.21
2489,23252,59026.92
2490,23272,59050.64
2491,23292,59074.35
2492,23308,59098.07
2493,23324,59121.78
2494,23340,59145.50
2495,23348,59169.21
2496,23364,59192.93
2497,23376,59216.64
2498,23388,59240.36
2499,23400,59264.07
2500,23420,59287.79
2501,23432,59311.51
2502,23440,59335.22
2503,23416,59358.94
2504,23356,59382.65
2505,23272,59406.37
2506,23176,59430.08
2507,23100,59453.80
2508,23048,59477.51
2509,23020,59501.23
2510,23020,59524.94
2511,23032,59548.66
2512,23040,59572.37
2513,23052,59596.09
2514,23072,59619.80
2515,23084,59643.52
2516,23104,59667.23
2517,23116,59690.95
2518,23124,59714.66
2519,23124,59738.38
2520,23124,59762.09
2521,23120,59785.81
2522,23120,59809.52
2523,23128,59833.24
2524,23136,59856.95
2525,23152,59880.67
2526,23172,59904.38
2527,23192,59928.10
2528,23212,59951.81
2529,23236,59975.53
2530,23252,59999.24
2531,23268,60022.96
2532,23284,60046.67
2533,23296,60070.39
2534,23304,60094.10
2535,23320,60117.82
2536,23324,60141.53
2537,23340,60165.25
2538,23348,60188.96
2539,23364,60212.68
2540,23372,60236.39
2541,23388,60260.11
2542,23396,60283.82
2543,23396,60307.54
2544,23364,60331.26
2545,23296,60354.97
2546,23204,60378.69
2547,23116,60402.40
2548,23052,60426.12
2549,23012,60449.83
2550,22996,60473.55
2551,23000,60497.26
2552,23012,60520.98
2553,23024,60544.69
2554,23040,60568.41
2555,23060,60592.12
2556,23080,60615.84
2557,23092,60639.55
2558,23104,60663.27
2559,23108,60686.98
2560,23104,60710.70
2561,23104,60734.41
2562,23100,60758.13
2563,23108,60781.84
2564,23112,60805.56
2565,23124,60829.27
2566,23144,60852.99
2567,23164,60876.70
2568,23184,60900.42
2569,23208,60924.13
2570,23224,60947.85
2571,23244,60971.56
2572,23256,60995.28
2573,23272,61018.99
2574,23284,61042.71
2575,23296,61066.42
2576,23308,61090.14
2577,23320,61113.85
2578,23328,61137.57
2579,23340,61161.28
2580,23352,61185.00
2581,23364,61208.71
2582,23372,61232.43
2583,23384,61256.14
2584,23400,61279.86
2585,23400,61303.57
2586,23372,61327.29
2587,23308,61351.01
2588,23220,61374.72
2589,23132,61398.44
2590,23068,61422.15
2591,23024,61445.87
2592,23008,61469.58
2593,23012,61493.30
2594,23028,61517.01
2595,23044,61540.73
2596,23064,61564.44
2597,23084,61588.16
2598,23104,61611.87
2599,23124,61635.59
2600,23132,61659.30
2601,23128,61683.02
2602,23124,61706.73
2603,23116,61730.45
2604,23108,61754.16
2605,23112,61777.88
2606,23124,61801.59
2607,23136,61825.31
2608,23156,61849.02
2609,23180,61872.74
2610,23200,61896.45
2611,23220,61920.17
2612,23236,61943.88
2613,23256,61967.60
2614,23268,61991.31
2615,23280,62015.03
2616,23292,62038.74
2617,23304,62062.46
2618,23316,62086.17
2619,23332,62109.89
2620,23340,62133.60
2621,23352,62157.32
2622,23360,62181.03
2623,23368,62204.75
2624,23380,62228.46
2625,23392,62252.18
2626,23408,62275.89
2627,23408,62299.61
2628,23376,62323.32
2629,23308,62347.04
2630,23228,62370.76
2631,23144,62394.47
2632,23084,62418.19
2633,23048,62441.90
2634,23032,62465.62
2635,23044,62489.33
2636,23056,62513.05
2637,23080,62536.76
2638,23112,62560.48
2639,23140,62584.19
2640,23160,62607.91
2641,23172,62631.62
2642,23180,62655.34
2643,23172,62679.05
2644,23160,62702.77
2645,23148,62726.48
2646,23148,62750.20
2647,23148,62773.91
2648,23160,62797.63
2649,23176,62821.34
2650,23188,62845.06
2651,23216,62868.77
2652,23236,62892.49
2653,23252,62916.20
2654,23272,62939.92
2655,23284,62963.63
2656,23300,62987.35
2657,23312,63011.06
2658,23328,63034.78
2659,23336,63058.49
2660,23344,63082.21
2661,23356,63105.92
2662,23368,63129.64
2663,23380,63153.35
2664,23388,63177.07
2665,23400,63200.78
2666,23404,63224.50
2667,23396,63248.21
2668,23352,63271.93
2669,23280,63295.64
2670,23204,63319.36
2671,23136,63343.07
2672,23088,63366.79
2673,23072,63390.51
2674,23068,63414.22
2675,23080,63437.94
2676,23104,63461.65
2677,23136,63485.37
2678,23168,63509.08
2679,23200,63532.80
2680,23220,63556.51
2681,23228,63580.23
2682,23228,63603.94
2683,23216,63627.66
2684,23204,63651.37
2685,23192,63675.09
2686,23188,63698.80
2687,23192,63722.52
2688,23204,63746.23
2689,23216,63769.95
2690,23244,63793.66
2691,23260,63817.38
2692,23284,63841.09
2693,23304,63864.81
2694,23324,63888.52
2695,23336,63912.24
2696,23356,63935.95
2697,23368,63959.67
2698,23376,63983.38
2699,23384,64007.10
2700,23392,64030.81
2701,23412,64054.53
2702,23412,64078.24
2703,23404,64101.96
2704,23364,64125.67
2705,23288,64149.39
2706,23212,64173.10
2707,23140,64196.82
2708,23092,64220.53
2709,23064,64244.25
2710,23064,64267.96
2711,23076,64291.68
2712,23100,64315.39
2713,23136,64339.11
2714,23168,64362.82
2715,23200,64386.54
2716,23224,64410.26
2717,23236,64433.97
2718,23228,64457.69
2719,23216,64481.40
2720,23204,64505.12
2721,23192,64528.83
2722,23192,64552.55
2723,23196,64576.26
2724,23208,64599.98
2725,23220,64623.69
2726,23240,64647.41
2727,23260,64671.12
2728,23280,64694.84
2729,23304,64718.55
2730,23324,64742.27
2731,23340,64765.98
2732,23356,64789.70
2733,23376,64813.41
2734,23392,64837.13
2735,23404,64860.84
2736,23416,64884.56
2737,23408,64908.27
2738,23364,64931.99
2739,23292,64955.70
2740,23204,64979.42
2741,23124,65003.13
2742,23064,65026.85
2743,23036,65050.56
2744,23032,65074.28
2745,23040,65097.99
2746,23064,65121.71
2747,23096,65145.42
2748,23124,65169.14
2749,23156,65192.85
2750,23180,65216.57
2751,23184,65240.28
2752,23188,65264.00
2753,23172,65287.71
2754,23156,65311.43
2755,23140,65335.14
2756,23132,65358.86
2757,23132,65382.57
2758,23140,65406.29
2759,23156,65430.01
2760,23172,65453.72
2761,23192,65477.44
2762,23216,65501.15
2763,23232,65524.87
2764,23252,65548.58
2765,23264,65572.30
2766,23280,65596.01
2767,23292,65619.73
2768,23300,65643.44
2769,23312,65667.16
2770,23316,65690.87
2771,23296,65714.59
2772,23244,65738.30
2773,23164,65762.02
2774,23076,65785.73
2775,23008,65809.45
2776,22964,65833.16
2777,22940,65856.88
2778,22948,65880.59
2779,22960,65904.31
2780,22980,65928.02
2781,23004,65951.74
2782,23032,65975.45
2783,23052,65999.17
2784,23068,66022.88
2785,23072,66046.60
2786,23068,66070.31
2787,23056,66094.03
2788,23048,66117.74
2789,23036,66141.46
2790,23040,66165.17
2791,23048,66188.89
2792,23060,66212.60
2793,23084,66236.32
2794,23108,66260.03
2795,23132,66283.75
2796,23156,66307.46
2797,23176,66331.18
2798,23196,66354.89
2799,23212,66378.61
2800,23228,66402.32
2801,23240,66426.04
2802,23260,66449.76
2803,23276,66473.47
2804,23296,66497.19
2805,23300,66520.90
2806,23272,66544.62
2807,23196,66568.33
2808,23104,66592.05
2809,23012,66615.76
2810,22944,66639.48
2811,22900,66663.19
2812,22888,66686.91
2813,22896,66710.62
2814,22916,66734.34
2815,22932,66758.05
2816,22960,66781.77
2817,22988,66805.48
2818,23004,66829.20
2819,23024,66852.91
2820,23032,66876.63
2821,23036,66900.34
2822,23028,66924.06
2823,23024,66947.77
2824,23020,66971.49
2825,23024,66995.20
2826,23040,67018.92
2827,23056,67042.63
2828,23072,67066.35
2829,23096,67090.06
2830,23124,67113.78
2831,23148,67137.49
2832,23172,67161.21
2833,23196,67184.92
2834,23216,67208.64
2835,23240,67232.35
2836,23264,67256.07
2837,23276,67279.78
2838,23296,67303.50
2839,23312,67327.21
2840,23328,67350.93
2841,23348,67374.64
2842,23360,67398.36
2843,23344,67422.07
2844,23288,67445.79
2845,23204,67469.51
2846,23116,67493.22
2847,23044,67516.94
2848,23000,67540.65
2849,22980,67564.37
2850,22980,67588.08
2851,22996,67611.80
2852,23012,67635.51
2853,23024,67659.23
2854,23048,67682.94
2855,23064,67706.66
2856,23084,67730.37
2857,23096,67754.09
2858,23112,67777.80
2859,23116,67801.52
2860,23112,67825.23
2861,23116,67848.95
2862,23120,67872.66
2863,23128,67896.38
2864,23140,67920.09
2865,23160,67943.81
2866,23184,67967.52
2867,23208,67991.24
2868,23232,68014.95
2869,23256,68038.67
2870,23280,68062.38
2871,23296,68086.10
2872,23320,68109.81
2873,23340,68133.53
2874,23360,68157.24
2875,23380,68180.96
2876,23400,68204.67
2877,23416,68228.39
2878,23432,68252.10
2879,23448,68275.82
2880,23464,68299.53
2881,23484,68323.25
2882,23496,68346.96
2883,23488,68370.68
2884,23452,68394.39
2885,23388,68418.11
2886,23316,68441.82
2887,23252,68465.54
2888,23204,68489.26
2889,23180,68512.97
2890,23176,68536.69
2891,23184,68560.40
2892,23196,68584.12
2893,23212,68607.83
2894,23232,68631.55
2895,23248,68655.26
2896,23272,68678.98
2897,23284,68702.69
2898,23292,68726.41
2899,23292,68750.12
2900,23292,68773.84
2901,23288,68797.55
2902,23292,68821.27
2903,23296,68844.98
2904,23312,68868.70
2905,23324,68892.41
2906,23348,68916.13
2907,23368,68939.84
2908,23384,68963.56
2909,23400,68987.27
2910,23420,69010.99
2911,23440,69034.70
2912,23452,69058.42
2913,23472,69082.13
2914,23488,69105.85
2915,23504,69129.56
2916,23524,69153.28
2917,23540,69176.99
2918,23552,69200.71
2919,23564,69224.42
2920,23580,69248.14
2921,23596,69271.85
2922,23612,69295.57
2923,23628,69319.28
2924,23636,69343.00
2925,23612,69366.71
2926,23572,69390.43
2927,23516,69414.14
2928,23456,69437.86
2929,23412,69461.57
2930,23384,69485.29
2931,23376,69509.00
2932,23380,69532.72
2933,23392,69556.44
2934,23404,69580.15
2935,23424,69603.87
2936,23444,69627.58
2937,23452,69651.30
2938,23464,69675.01
2939,23468,69698.73
2940,23468,69722.44
2941,23468,69746.16
2942,23464,69769.87
2943,23464,69793.59
2944,23468,69817.30
2945,23476,69841.02
2946,23488,69864.73
2947,23504,69888.45
2948,23520,69912.16
2949,23536,69935.88
2950,23548,69959.59
2951,23564,69983.31
2952,23580,70007.02
2953,23596,70030.74
2954,23608,70054.45
2955,23624,70078.17
2956,23640,70101.88
2957,23652,70125.60
2958,23664,70149.31
2959,23680,70173.03
2960,23692,70196.74
2961,23708,70220.46
2962,23720,70244.17
2963,23736,70267.89
2964,23752,70291.60
2965,23764,70315.32
2966,23760,70339.03
2967,23736,70362.75
2968,23700,70386.46
2969,23644,70410.18
2970,23600,70433.89
2971,23568,70457.61
2972,23548,70481.32
2973,23544,70505.04
2974,23548,70528.75
2975,23564,70552.47
2976,23576,70576.19
2977,23592,70599.90
2978,23612,70623.62
2979,23620,70647.33
2980,23628,70671.05
2981,23628,70694.76
2982,23624,70718.48
2983,23612,70742.19
2984,23608,70765.91
2985,23608,70789.62
2986,23612,70813.34
2987,23620,70837.05
2988,23632,70860.77
2989,23648,70884.48
2990,23660,70908.20
2991,23672,70931.91
2992,23684,70955.63
2993,23700,70979.34
2994,23708,71003.06
2995,23724,71026.77
2996,23736,71050.49
2997,23748,71074.20
2998,23756,71097.92
2999,23776,71121.63
