Sample_Index,IR_Value,Timestamp_ms
0,19960,0.00
1,19660,19.97
2,20028,39.94
3,20364,59.91
4,20652,79.89
5,20964,99.86
6,21316,119.83
7,21624,139.80
8,21872,159.77
9,22064,179.74
10,22212,199.71
11,22332,219.68
12,22432,239.66
13,22488,259.63
14,22480,279.60
15,22464,299.57
16,22440,319.54
17,22368,339.51
18,22240,359.48
19,22088,379.45
20,21940,399.43
21,21832,419.40
22,21740,439.37
23,21676,459.34
24,21668,479.31
25,21704,499.28
26,21728,519.25
27,21716,539.22
28,21716,559.20
29,21684,579.17
30,21644,599.14
31,21580,619.11
32,21496,639.08
33,21436,659.05
34,21400,679.02
35,21388,698.99
36,21384,718.97
37,21376,738.94
38,21392,758.91
39,21416,778.88
40,21436,798.85
41,21464,818.82
42,21484,838.79
43,21496,858.77
44,21516,878.74
45,21548,898.71
46,21564,918.68
47,21552,938.65
48,21484,958.62
49,21392,978.59
50,21296,998.56
51,21224,1018.54
52,21184,1038.51
53,21180,1058.48
54,21212,1078.45
55,21256,1098.42
56,21416,1118.39
57,21604,1138.36
58,21664,1158.33
59,21672,1178.31
60,21676,1198.28
61,21668,1218.25
62,21664,1238.22
63,21688,1258.19
64,21716,1278.16
65,21748,1298.13
66,21772,1318.10
67,21796,1338.08
68,21820,1358.05
69,21856,1378.02
70,21892,1397.99
71,21924,1417.96
72,21960,1437.93
73,21996,1457.90
74,22008,1477.87
75,22024,1497.85
76,22024,1517.82
77,21992,1537.79
78,21924,1557.76
79,21828,1577.73
80,21728,1597.70
81,21656,1617.67
82,21628,1637.65
83,21636,1657.62
84,21664,1677.59
85,21700,1697.56
86,21752,1717.53
87,21796,1737.50
88,21840,1757.47
89,21864,1777.44
90,21860,1797.42
91,21832,1817.39
92,21808,1837.36
93,21788,1857.33
94,21784,1877.30
95,21792,1897.27
96,21804,1917.24
97,21804,1937.21
98,21816,1957.19
99,21828,1977.16
100,21840,1997.13
101,21844,2017.10
102,21848,2037.07
103,21848,2057.04
104,21848,2077.01
105,21844,2096.98
106,21824,2116.96
107,21760,2136.93
108,21664,2156.90
109,21560,2176.87
110,21464,2196.84
111,21388,2216.81
112,21344,2236.78
113,21328,2256.75
114,21336,2276.73
115,21364,2296.70
116,21400,2316.67
117,21412,2336.64
118,21420,2356.61
119,21408,2376.58
120,21400,2396.55
121,21392,2416.53
122,21392,2436.50
123,21380,2456.47
124,21356,2476.44
125,21320,2496.41
126,21292,2516.38
127,21272,2536.35
128,21260,2556.32
129,21236,2576.30
130,21224,2596.27
131,21208,2616.24
132,21196,2636.21
133,21168,2656.18
134,21144,2676.15
135,21120,2696.12
136,21076,2716.09
137,20988,2736.07
138,20888,2756.04
139,20800,2776.01
140,20744,2795.98
141,20720,2815.95
142,20716,2835.92
143,20704,2855.89
144,20692,2875.86
145,20704,2895.84
146,20716,2915.81
147,20728,2935.78
148,20760,2955.75
149,20792,2975.72
150,20812,2995.69
151,20820,3015.66
152,20824,3035.63
153,20824,3055.61
154,20824,3075.58
155,20836,3095.55
156,20852,3115.52
157,20880,3135.49
158,20904,3155.46
159,20900,3175.43
160,20888,3195.41
161,20868,3215.38
162,20892,3235.35
163,20932,3255.32
164,20952,3275.29
165,20964,3295.26
166,20980,3315.23
167,20988,3335.20
168,21008,3355.18
169,20988,3375.15
170,20916,3395.12
171,20796,3415.09
172,20684,3435.06
173,20608,3455.03
174,20572,3475.00
175,20564,3494.97
176,20576,3514.95
177,20596,3534.92
178,20620,3554.89
179,20652,3574.86
180,20680,3594.83
181,20692,3614.80
182,20700,3634.77
183,20704,3654.74
184,20700,3674.72
185,20696,3694.69
186,20700,3714.66
187,20708,3734.63
188,20724,3754.60
189,20756,3774.57
190,20788,3794.54
191,20820,3814.51
192,20848,3834.49
193,20868,3854.46
194,20892,3874.43
195,20916,3894.40
196,20932,3914.37
197,20956,3934.34
198,20976,3954.31
199,21000,3974.28
200,21012,3994.26
201,21016,4014.23
202,21020,4034.20
203,21032,4054.17
204,21056,4074.14
205,21084,4094.11
206,21108,4114.08
207,21120,4134.06
208,21120,4154.03
209,21080,4174.00
210,21000,4193.97
211,20912,4213.94
212,20852,4233.91
213,20828,4253.88
214,20824,4273.85
215,20840,4293.83
216,20852,4313.80
217,20872,4333.77
218,20900,4353.74
219,20932,4373.71
220,20964,4393.68
221,20988,4413.65
222,21012,4433.62
223,21036,4453.60
224,21052,4473.57
225,21072,4493.54
226,21092,4513.51
227,21120,4533.48
228,21148,4553.45
229,21176,4573.42
230,21208,4593.39
231,21240,4613.37
232,21264,4633.34
233,21292,4653.31
234,21328,4673.28
235,21348,4693.25
236,21368,4713.22
237,21388,4733.19
238,21416,4753.16
239,21444,4773.14
240,21468,4793.11
241,21492,4813.08
242,21516,4833.05
243,21544,4853.02
244,21564,4872.99
245,21592,4892.96
246,21612,4912.94
247,21632,4932.91
248,21656,4952.88
249,21688,4972.85
250,21708,4992.82
251,21724,5012.79
252,21716,5032.76
253,21684,5052.73
254,21644,5072.71
255,21600,5092.68
256,21572,5112.65
257,21552,5132.62
258,21548,5152.59
259,21544,5172.56
260,21552,5192.53
261,21568,5212.50
262,21588,5232.48
263,21604,5252.45
264,21624,5272.42
265,21636,5292.39
266,21656,5312.36
267,21664,5332.33
268,21672,5352.30
269,21684,5372.27
270,21696,5392.25
271,21712,5412.22
272,21728,5432.19
273,21748,5452.16
274,21772,5472.13
275,21792,5492.10
276,21812,5512.07
277,21832,5532.04
278,21852,5552.02
279,21880,5571.99
280,21900,5591.96
281,21928,5611.93
282,21952,5631.90
283,21972,5651.87
284,21992,5671.84
285,22012,5691.82
286,22036,5711.79
287,22060,5731.76
288,22084,5751.73
289,22108,5771.70
290,22132,5791.67
291,22152,5811.64
292,22160,5831.61
293,22148,5851.59
294,22132,5871.56
295,22112,5891.53
296,22096,5911.50
297,22088,5931.47
298,22092,5951.44
299,22092,5971.41
300,22100,5991.38
301,22112,6011.36
302,22124,6031.33
303,22140,6051.30
304,22152,6071.27
305,22164,6091.24
306,22176,6111.21
307,22188,6131.18
308,22200,6151.15
309,22220,6171.13
310,22228,6191.10
311,22240,6211.07
312,22256,6231.04
313,22272,6251.01
314,22292,6270.98
315,22312,6290.95
316,22332,6310.92
317,22352,6330.90
318,22372,6350.87
319,22388,6370.84
320,22408,6390.81
321,22428,6410.78
322,22448,6430.75
323,22472,6450.72
324,22488,6470.70
325,22512,6490.67
326,22532,6510.64
327,22544,6530.61
328,22564,6550.58
329,22584,6570.55
330,22600,6590.52
331,22624,6610.49
332,22644,6630.47
333,22664,6650.44
334,22668,6670.41
335,22664,6690.38
336,22652,6710.35
337,22636,6730.32
338,22632,6750.29
339,22632,6770.26
340,22636,6790.24
341,22648,6810.21
342,22652,6830.18
343,22668,6850.15
344,22676,6870.12
345,22684,6890.09
346,22696,6910.06
347,22712,6930.03
348,22720,6950.01
349,22728,6969.98
350,22740,6989.95
351,22748,7009.92
352,22760,7029.89
353,22772,7049.86
354,22784,7069.83
355,22796,7089.80
356,22812,7109.78
357,22828,7129.75
358,22844,7149.72
359,22852,7169.69
360,22868,7189.66
361,22880,7209.63
362,22896,7229.60
363,22908,7249.58
364,22920,7269.55
365,22936,7289.52
366,22948,7309.49
367,22960,7329.46
368,22972,7349.43
369,22984,7369.40
370,23004,7389.37
371,23008,7409.35
372,23024,7429.32
373,23036,7449.29
374,23052,7469.26
375,23060,7489.23
376,23056,7509.20
377,23052,7529.17
378,23044,7549.14
379,23048,7569.12
380,23052,7589.09
381,23060,7609.06
382,23068,7629.03
383,23084,7649.00
384,23092,7668.97
385,23104,7688.94
386,23116,7708.91
387,23128,7728.89
388,23136,7748.86
389,23148,7768.83
390,23160,7788.80
391,23172,7808.77
392,23176,7828.74
393,23184,7848.71
394,23196,7868.68
395,23204,7888.66
396,23220,7908.63
397,23228,7928.60
398,23244,7948.57
399,23252,7968.54
400,23264,7988.51
401,23272,8008.48
402,23276,8028.46
403,23288,8048.43
404,23292,8068.40
405,23308,8088.37
406,23316,8108.34
407,23328,8128.31
408,23336,8148.28
409,23348,8168.25
410,23360,8188.23
411,23368,8208.20
412,23380,8228.17
413,23392,8248.14
414,23400,8268.11
415,23416,8288.08
416,23428,8308.05
417,23440,8328.02
418,23452,8348.00
419,23464,8367.97
420,23476,8387.94
421,23484,8407.91
422,23488,8427.88
423,23480,8447.85
424,23476,8467.82
425,23476,8487.79
426,23480,8507.77
427,23484,8527.74
428,23492,8547.71
429,23504,8567.68
430,23512,8587.65
431,23520,8607.62
432,23532,8627.59
433,23536,8647.56
434,23544,8667.54
435,23548,8687.51
436,23552,8707.48
437,23552,8727.45
438,23556,8747.42
439,23560,8767.39
440,23568,8787.36
441,23576,8807.34
442,23584,8827.31
443,23588,8847.28
444,23592,8867.25
445,23600,8887.22
446,23608,8907.19
447,23612,8927.16
448,23620,8947.13
449,23624,8967.11
450,23636,8987.08
451,23644,9007.05
452,23652,9027.02
453,23656,9046.99
454,23664,9066.96
455,23672,9086.93
456,23684,9106.90
457,23692,9126.88
458,23700,9146.85
459,23708,9166.82
460,23716,9186.79
461,23720,9206.76
462,23728,9226.73
463,23740,9246.70
464,23744,9266.67
465,23752,9286.65
466,23748,9306.62
467,23736,9326.59
468,23724,9346.56
469,23720,9366.53
470,23720,9386.50
471,23724,9406.47
472,23728,9426.44
473,23732,9446.42
474,23744,9466.39
475,23752,9486.36
476,23756,9506.33
477,23760,9526.30
478,23764,9546.27
479,23768,9566.24
480,23772,9586.22
481,23772,9606.19
482,23780,9626.16
483,23780,9646.13
484,23792,9666.10
485,23796,9686.07
486,23800,9706.04
487,23808,9726.01
488,23816,9745.99
489,23824,9765.96
490,23828,9785.93
491,23836,9805.90
492,23844,9825.87
493,23848,9845.84
494,23856,9865.81
495,23860,9885.78
496,23864,9905.76
497,23868,9925.73
498,23876,9945.70
499,23880,9965.67
500,23888,9985.64
501,23888,10005.61
502,23892,10025.58
503,23896,10045.55
504,23900,10065.53
505,23904,10085.50
506,23904,10105.47
507,23912,10125.44
508,23916,10145.41
509,23916,10165.38
510,23920,10185.35
511,23916,10205.32
512,23896,10225.30
513,23888,10245.27
514,23884,10265.24
515,23888,10285.21
516,23888,10305.18
517,23896,10325.15
518,23904,10345.12
519,23912,10365.09
520,23916,10385.07
521,23920,10405.04
522,23924,10425.01
523,23928,10444.98
524,23928,10464.95
525,23928,10484.92
526,23928,10504.89
527,23928,10524.87
528,23932,10544.84
529,23932,10564.81
530,23940,10584.78
531,23944,10604.75
532,23944,10624.72
533,23948,10644.69
534,23948,10664.66
535,23952,10684.64
536,23956,10704.61
537,23952,10724.58
538,23952,10744.55
539,23952,10764.52
540,23956,10784.49
541,23956,10804.46
542,23960,10824.43
543,23964,10844.41
544,23960,10864.38
545,23964,10884.35
546,23964,10904.32
547,23968,10924.29
548,23972,10944.26
549,23976,10964.23
550,23980,10984.20
551,23976,11004.18
552,23968,11024.15
553,23956,11044.12
554,23940,11064.09
555,23932,11084.06
556,23928,11104.03
557,23924,11124.00
558,23924,11143.97
559,23928,11163.95
560,23924,11183.92
561,23932,11203.89
562,23932,11223.86
563,23932,11243.83
564,23928,11263.80
565,23920,11283.77
566,23920,11303.75
567,23916,11323.72
568,23916,11343.69
569,23916,11363.66
570,23908,11383.63
571,23908,11403.60
572,23904,11423.57
573,23904,11443.54
574,23904,11463.52
575,23900,11483.49
576,23900,11503.46
577,23904,11523.43
578,23904,11543.40
579,23900,11563.37
580,23900,11583.34
581,23904,11603.31
582,23896,11623.29
583,23904,11643.26
584,23904,11663.23
585,23908,11683.20
586,23912,11703.17
587,23912,11723.14
588,23916,11743.11
589,23920,11763.08
590,23924,11783.06
591,23916,11803.03
592,23904,11823.00
593,23884,11842.97
594,23868,11862.94
595,23852,11882.91
596,23840,11902.88
597,23832,11922.85
598,23824,11942.83
599,23820,11962.80
600,23820,11982.77
601,23820,12002.74
602,23816,12022.71
603,23816,12042.68
604,23812,12062.65
605,23800,12082.63
606,23792,12102.60
607,23780,12122.57
608,23772,12142.54
609,23760,12162.51
610,23760,12182.48
611,23756,12202.45
612,23752,12222.42
613,23752,12242.40
614,23748,12262.37
615,23748,12282.34
616,23748,12302.31
617,23740,12322.28
618,23740,12342.25
619,23740,12362.22
620,23740,12382.19
621,23736,12402.17
622,23736,12422.14
623,23736,12442.11
624,23736,12462.08
625,23740,12482.05
626,23740,12502.02
627,23736,12521.99
628,23724,12541.96
629,23700,12561.94
630,23676,12581.91
631,23652,12601.88
632,23628,12621.85
633,23612,12641.82
634,23600,12661.79
635,23592,12681.76
636,23584,12701.73
637,23588,12721.71
638,23580,12741.68
639,23576,12761.65
640,23564,12781.62
641,23552,12801.59
642,23540,12821.56
643,23524,12841.53
644,23512,12861.51
645,23504,12881.48
646,23500,12901.45
647,23496,12921.42
648,23492,12941.39
649,23484,12961.36
650,23484,12981.33
651,23484,13001.30
652,23480,13021.28
653,23480,13041.25
654,23480,13061.22
655,23480,13081.19
656,23480,13101.16
657,23480,13121.13
658,23480,13141.10
659,23480,13161.07
660,23484,13181.05
661,23488,13201.02
662,23488,13220.99
663,23492,13240.96
664,23492,13260.93
665,23476,13280.90
666,23452,13300.87
667,23416,13320.84
668,23384,13340.82
669,23352,13360.79
670,23328,13380.76
671,23312,13400.73
672,23300,13420.70
673,23296,13440.67
674,23288,13460.64
675,23280,13480.61
676,23276,13500.59
677,23264,13520.56
678,23260,13540.53
679,23244,13560.50
680,23236,13580.47
681,23224,13600.44
682,23216,13620.41
683,23208,13640.39
684,23200,13660.36
685,23196,13680.33
686,23196,13700.30
687,23196,13720.27
688,23200,13740.24
689,23200,13760.21
690,23204,13780.18
691,23208,13800.16
692,23212,13820.13
693,23212,13840.10
694,23216,13860.07
695,23220,13880.04
696,23224,13900.01
697,23224,13919.98
698,23232,13939.95
699,23236,13959.93
700,23236,13979.90
701,23244,13999.87
702,23248,14019.84
703,23240,14039.81
704,23220,14059.78
705,23192,14079.75
706,23152,14099.72
707,23112,14119.70
708,23084,14139.67
709,23064,14159.64
710,23048,14179.61
711,23036,14199.58
712,23028,14219.55
713,23020,14239.52
714,23016,14259.49
715,23008,14279.47
716,23004,14299.44
717,22996,14319.41
718,22984,14339.38
719,22976,14359.35
720,22964,14379.32
721,22960,14399.29
722,22952,14419.27
723,22952,14439.24
724,22952,14459.21
725,22956,14479.18
726,22956,14499.15
727,22960,14519.12
728,22964,14539.09
729,22964,14559.06
730,22968,14579.04
731,22968,14599.01
732,22976,14618.98
733,22980,14638.95
734,22988,14658.92
735,22988,14678.89
736,22996,14698.86
737,23000,14718.83
738,23004,14738.81
739,23012,14758.78
740,23016,14778.75
741,23012,14798.72
742,22996,14818.69
743,22964,14838.66
744,22916,14858.63
745,22872,14878.60
746,22832,14898.58
747,22804,14918.55
748,22780,14938.52
749,22768,14958.49
750,22764,14978.46
751,22756,14998.43
752,22756,15018.40
753,22756,15038.37
754,22748,15058.35
755,22740,15078.32
756,22736,15098.29
757,22724,15118.26
758,22720,15138.23
759,22712,15158.20
760,22716,15178.17
761,22716,15198.15
762,22720,15218.12
763,22720,15238.09
764,22728,15258.06
765,22732,15278.03
766,22740,15298.00
767,22744,15317.97
768,22752,15337.94
769,22760,15357.92
770,22768,15377.89
771,22776,15397.86
772,22776,15417.83
773,22784,15437.80
774,22792,15457.77
775,22800,15477.74
776,22812,15497.71
777,22816,15517.69
778,22828,15537.66
779,22836,15557.63
780,22840,15577.60
781,22848,15597.57
782,22856,15617.54
783,22860,15637.51
784,22872,15657.48
785,22876,15677.46
786,22864,15697.43
787,22836,15717.40
788,22784,15737.37
789,22732,15757.34
790,22688,15777.31
791,22652,15797.28
792,22636,15817.25
793,22620,15837.23
794,22620,15857.20
795,22616,15877.17
796,22620,15897.14
797,22624,15917.11
798,22624,15937.08
799,22624,15957.05
800,22616,15977.03
801,22612,15997.00
802,22608,16016.97
803,22604,16036.94
804,22604,16056.91
805,22600,16076.88
806,22604,16096.85
807,22612,16116.82
808,22616,16136.80
809,22620,16156.77
810,22632,16176.74
811,22636,16196.71
812,22644,16216.68
813,22648,16236.65
814,22656,16256.62
815,22660,16276.59
816,22668,16296.57
817,22664,16316.54
818,22676,16336.51
819,22676,16356.48
820,22684,16376.45
821,22688,16396.42
822,22696,16416.39
823,22704,16436.36
824,22712,16456.34
825,22720,16476.31
826,22712,16496.28
827,22688,16516.25
828,22656,16536.22
829,22616,16556.19
830,22576,16576.16
831,22548,16596.13
832,22528,16616.11
833,22516,16636.08
834,22516,16656.05
835,22520,16676.02
836,22528,16695.99
837,22540,16715.96
838,22540,16735.93
839,22544,16755.91
840,22544,16775.88
841,22536,16795.85
842,22528,16815.82
843,22520,16835.79
844,22516,16855.76
845,22520,16875.73
846,22524,16895.70
847,22532,16915.68
848,22540,16935.65
849,22544,16955.62
850,22552,16975.59
851,22552,16995.56
852,22560,17015.53
853,22560,17035.50
854,22560,17055.47
855,22568,17075.45
856,22572,17095.42
857,22572,17115.39
858,22576,17135.36
859,22584,17155.33
860,22584,17175.30
861,22584,17195.27
862,22572,17215.24
863,22540,17235.22
864,22500,17255.19
865,22452,17275.16
866,22412,17295.13
867,22388,17315.10
868,22372,17335.07
869,22376,17355.04
870,22384,17375.01
871,22392,17394.99
872,22396,17414.96
873,22404,17434.93
874,22408,17454.90
875,22408,17474.87
876,22404,17494.84
877,22392,17514.81
878,22392,17534.78
879,22388,17554.76
880,22396,17574.73
881,22396,17594.70
882,22400,17614.67
883,22412,17634.64
884,22420,17654.61
885,22424,17674.58
886,22432,17694.56
887,22440,17714.53
888,22448,17734.50
889,22452,17754.47
890,22464,17774.44
891,22468,17794.41
892,22480,17814.38
893,22488,17834.35
894,22488,17854.33
895,22500,17874.30
896,22508,17894.27
897,22516,17914.24
898,22528,17934.21
899,22540,17954.18
900,22536,17974.15
901,22516,17994.12
902,22468,18014.10
903,22404,18034.07
904,22340,18054.04
905,22288,18074.01
906,22256,18093.98
907,22240,18113.95
908,22224,18133.92
909,22224,18153.89
910,22228,18173.87
911,22224,18193.84
912,22224,18213.81
913,22224,18233.78
914,22224,18253.75
915,22224,18273.72
916,22216,18293.69
917,22212,18313.66
918,22208,18333.64
919,22208,18353.61
920,22212,18373.58
921,22216,18393.55
922,22216,18413.52
923,22224,18433.49
924,22232,18453.46
925,22244,18473.44
926,22256,18493.41
927,22260,18513.38
928,22268,18533.35
929,22276,18553.32
930,22288,18573.29
931,22292,18593.26
932,22300,18613.23
933,22312,18633.21
934,22320,18653.18
935,22332,18673.15
936,22344,18693.12
937,22352,18713.09
938,22364,18733.06
939,22376,18753.03
940,22380,18773.00
941,22360,18792.98
942,22316,18812.95
943,22248,18832.92
944,22188,18852.89
945,22136,18872.86
946,22100,18892.83
947,22076,18912.80
948,22068,18932.77
949,22068,18952.75
950,22068,18972.72
951,22072,18992.69
952,22076,19012.66
953,22084,19032.63
954,22088,19052.60
955,22084,19072.57
956,22076,19092.54
957,22076,19112.52
958,22068,19132.49
959,22072,19152.46
960,22072,19172.43
961,22084,19192.40
962,22088,19212.37
963,22100,19232.34
964,22112,19252.32
965,22124,19272.29
966,22132,19292.26
967,22148,19312.23
968,22160,19332.20
969,22176,19352.17
970,22188,19372.14
971,22200,19392.11
972,22212,19412.09
973,22224,19432.06
974,22232,19452.03
975,22244,19472.00
976,22260,19491.97
977,22272,19511.94
978,22284,19531.91
979,22296,19551.88
980,22308,19571.86
981,22320,19591.83
982,22332,19611.80
983,22344,19631.77
984,22360,19651.74
985,22352,19671.71
986,22320,19691.68
987,22264,19711.65
988,22200,19731.63
989,22140,19751.60
990,22096,19771.57
991,22072,19791.54
992,22060,19811.51
993,22056,19831.48
994,22060,19851.45
995,22076,19871.42
996,22084,19891.40
997,22092,19911.37
998,22092,19931.34
999,22088,19951.31
1000,22084,19971.28
1001,22080,19991.25
1002,22072,20011.22
1003,22076,20031.20
1004,22080,20051.17
1005,22088,20071.14
1006,22100,20091.11
1007,22112,20111.08
1008,22124,20131.05
1009,22136,20151.02
1010,22152,20170.99
1011,22160,20190.97
1012,22172,20210.94
1013,22184,20230.91
1014,22196,20250.88
1015,22200,20270.85
1016,22208,20290.82
1017,22216,20310.79
1018,22224,20330.76
1019,22232,20350.74
1020,22244,20370.71
1021,22256,20390.68
1022,22268,20410.65
1023,22260,20430.62
1024,22236,20450.59
1025,22196,20470.56
1026,22136,20490.53
1027,22080,20510.51
1028,22036,20530.48
1029,22012,20550.45
1030,22004,20570.42
1031,22004,20590.39
1032,22008,20610.36
1033,22016,20630.33
1034,22028,20650.30
1035,22032,20670.28
1036,22036,20690.25
1037,22032,20710.22
1038,22020,20730.19
1039,22016,20750.16
1040,22012,20770.13
1041,22008,20790.10
1042,22012,20810.08
1043,22020,20830.05
1044,22028,20850.02
1045,22040,20869.99
1046,22048,20889.96
1047,22064,20909.93
1048,22076,20929.90
1049,22088,20949.87
1050,22100,20969.85
1051,22108,20989.82
1052,22120,21009.79
1053,22128,21029.76
1054,22136,21049.73
1055,22148,21069.70
1056,22160,21089.67
1057,22172,21109.64
1058,22180,21129.62
1059,22192,21149.59
1060,22200,21169.56
1061,22180,21189.53
1062,22136,21209.50
1063,22068,21229.47
1064,21996,21249.44
1065,21928,21269.41
1066,21884,21289.39
1067,21864,21309.36
1068,21856,21329.33
1069,21852,21349.30
1070,21860,21369.27
1071,21864,21389.24
1072,21872,21409.21
1073,21876,21429.18
1074,21884,21449.16
1075,21888,21469.13
1076,21884,21489.10
1077,21876,21509.07
1078,21872,21529.04
1079,21872,21549.01
1080,21880,21568.98
1081,21888,21588.96
1082,21904,21608.93
1083,21920,21628.90
1084,21932,21648.87
1085,21948,21668.84
1086,21968,21688.81
1087,21980,21708.78
1088,21996,21728.75
1089,22008,21748.73
1090,22020,21768.70
1091,22036,21788.67
1092,22048,21808.64
1093,22064,21828.61
1094,22076,21848.58
1095,22092,21868.55
1096,22108,21888.52
1097,22120,21908.50
1098,22124,21928.47
1099,22104,21948.44
1100,22052,21968.41
1101,21984,21988.38
1102,21908,22008.35
1103,21844,22028.32
1104,21804,22048.29
1105,21780,22068.27
1106,21776,22088.24
1107,21772,22108.21
1108,21776,22128.18
1109,21788,22148.15
1110,21800,22168.12
1111,21808,22188.09
1112,21812,22208.06
1113,21812,22228.04
1114,21808,22248.01
1115,21804,22267.98
1116,21804,22287.95
1117,21812,22307.92
1118,21820,22327.89
1119,21828,22347.86
1120,21848,22367.84
1121,21860,22387.81
1122,21880,22407.78
1123,21892,22427.75
1124,21908,22447.72
1125,21924,22467.69
1126,21936,22487.66
1127,21952,22507.63
1128,21964,22527.61
1129,21980,22547.58
1130,21992,22567.55
1131,22004,22587.52
1132,22012,22607.49
1133,22024,22627.46
1134,22032,22647.43
1135,22044,22667.40
1136,22060,22687.38
1137,22068,22707.35
1138,22044,22727.32
1139,21992,22747.29
1140,21920,22767.26
1141,21848,22787.23
1142,21788,22807.20
1143,21756,22827.17
1144,21740,22847.15
1145,21748,22867.12
1146,21752,22887.09
1147,21768,22907.06
1148,21788,22927.03
1149,21800,22947.00
1150,21812,22966.97
1151,21816,22986.94
1152,21816,23006.92
1153,21816,23026.89
1154,21812,23046.86
1155,21808,23066.83
1156,21812,23086.80
1157,21820,23106.77
1158,21832,23126.74
1159,21848,23146.72
1160,21860,23166.69
1161,21876,23186.66
1162,21888,23206.63
1163,21904,23226.60
1164,21924,23246.57
1165,21932,23266.54
1166,21944,23286.51
1167,21956,23306.49
1168,21960,23326.46
1169,21972,23346.43
1170,21980,23366.40
1171,21992,23386.37
1172,22008,23406.34
1173,22016,23426.31
1174,22016,23446.28
1175,21992,23466.26
1176,21936,23486.23
1177,21872,23506.20
1178,21812,23526.17
1179,21772,23546.14
1180,21748,23566.11
1181,21748,23586.08
1182,21760,23606.05
1183,21780,23626.03
1184,21796,23646.00
1185,21816,23665.97
1186,21832,23685.94
1187,21844,23705.91
1188,21840,23725.88
1189,21836,23745.85
1190,21832,23765.82
1191,21828,23785.80
1192,21828,23805.77
1193,21832,23825.74
1194,21840,23845.71
1195,21852,23865.68
1196,21868,23885.65
1197,21884,23905.62
1198,21900,23925.59
1199,21912,23945.57
1200,21928,23965.54
1201,21936,23985.51
1202,21948,24005.48
1203,21952,24025.45
1204,21964,24045.42
1205,21972,24065.39
1206,21984,24085.37
1207,21976,24105.34
1208,21940,24125.31
1209,21884,24145.28
1210,21816,24165.25
1211,21748,24185.22
1212,21700,24205.19
1213,21680,24225.16
1214,21676,24245.14
1215,21688,24265.11
1216,21704,24285.08
1217,21724,24305.05
1218,21748,24325.02
1219,21764,24344.99
1220,21764,24364.96
1221,21768,24384.93
1222,21760,24404.91
1223,21752,24424.88
1224,21748,24444.85
1225,21748,24464.82
1226,21760,24484.79
1227,21772,24504.76
1228,21788,24524.73
1229,21800,24544.70
1230,21812,24564.68
1231,21832,24584.65
1232,21848,24604.62
1233,21864,24624.59
1234,21872,24644.56
1235,21888,24664.53
1236,21896,24684.50
1237,21904,24704.47
1238,21916,24724.45
1239,21924,24744.42
1240,21936,24764.39
1241,21932,24784.36
1242,21896,24804.33
1243,21828,24824.30
1244,21740,24844.27
1245,21652,24864.25
1246,21592,24884.22
1247,21564,24904.19
1248,21552,24924.16
1249,21560,24944.13
1250,21576,24964.10
1251,21592,24984.07
1252,21608,25004.04
1253,21620,25024.02
1254,21632,25043.99
1255,21632,25063.96
1256,21628,25083.93
1257,21624,25103.90
1258,21620,25123.87
1259,21616,25143.84
1260,21624,25163.81
1261,21636,25183.79
1262,21652,25203.76
1263,21664,25223.73
1264,21684,25243.70
1265,21700,25263.67
1266,21716,25283.64
1267,21724,25303.61
1268,21740,25323.58
1269,21756,25343.56
1270,21768,25363.53
1271,21776,25383.50
1272,21788,25403.47
1273,21800,25423.44
1274,21808,25443.41
1275,21816,25463.38
1276,21792,25483.35
1277,21728,25503.33
1278,21644,25523.30
1279,21564,25543.27
1280,21500,25563.24
1281,21464,25583.21
1282,21452,25603.18
1283,21452,25623.15
1284,21464,25643.13
1285,21480,25663.10
1286,21504,25683.07
1287,21524,25703.04
1288,21536,25723.01
1289,21544,25742.98
1290,21544,25762.95
1291,21544,25782.92
1292,21544,25802.90
1293,21544,25822.87
1294,21548,25842.84
1295,21560,25862.81
1296,21576,25882.78
1297,21596,25902.75
1298,21616,25922.72
1299,21636,25942.69
1300,21648,25962.67
1301,21664,25982.64
1302,21684,26002.61
1303,21700,26022.58
1304,21720,26042.55
1305,21732,26062.52
1306,21740,26082.49
1307,21756,26102.46
1308,21772,26122.44
1309,21780,26142.41
1310,21784,26162.38
1311,21800,26182.35
1312,21812,26202.32
1313,21820,26222.29
1314,21800,26242.26
1315,21740,26262.23
1316,21656,26282.21
1317,21568,26302.18
1318,21504,26322.15
1319,21464,26342.12
1320,21456,26362.09
1321,21464,26382.06
1322,21488,26402.03
1323,21508,26422.01
1324,21532,26441.98
1325,21552,26461.95
1326,21568,26481.92
1327,21572,26501.89
1328,21568,26521.86
1329,21564,26541.83
1330,21564,26561.80
1331,21556,26581.78
1332,21564,26601.75
1333,21580,26621.72
1334,21596,26641.69
1335,21612,26661.66
1336,21624,26681.63
1337,21640,26701.60
1338,21660,26721.57
1339,21676,26741.55
1340,21692,26761.52
1341,21708,26781.49
1342,21720,26801.46
1343,21728,26821.43
1344,21740,26841.40
1345,21748,26861.37
1346,21752,26881.34
1347,21760,26901.32
1348,21772,26921.29
1349,21784,26941.26
1350,21792,26961.23
1351,21768,26981.20
1352,21704,27001.17
1353,21624,27021.14
1354,21556,27041.11
1355,21508,27061.09
1356,21484,27081.06
1357,21488,27101.03
1358,21508,27121.00
1359,21528,27140.97
1360,21560,27160.94
1361,21588,27180.91
1362,21608,27200.89
1363,21616,27220.86
1364,21620,27240.83
1365,21612,27260.80
1366,21604,27280.77
1367,21596,27300.74
1368,21596,27320.71
1369,21600,27340.68
1370,21612,27360.66
1371,21624,27380.63
1372,21640,27400.60
1373,21656,27420.57
1374,21676,27440.54
1375,21684,27460.51
1376,21700,27480.48
1377,21704,27500.45
1378,21708,27520.43
1379,21708,27540.40
1380,21708,27560.37
1381,21716,27580.34
1382,21728,27600.31
1383,21732,27620.28
1384,21728,27640.25
1385,21684,27660.22
1386,21612,27680.20
1387,21536,27700.17
1388,21472,27720.14
1389,21436,27740.11
1390,21424,27760.08
1391,21436,27780.05
1392,21456,27800.02
1393,21484,27819.99
1394,21512,27839.97
1395,21540,27859.94
1396,21560,27879.91
1397,21568,27899.88
1398,21564,27919.85
1399,21556,27939.82
1400,21552,27959.79
1401,21548,27979.77
1402,21552,27999.74
1403,21560,28019.71
1404,21576,28039.68
1405,21592,28059.65
1406,21612,28079.62
1407,21628,28099.59
1408,21648,28119.56
1409,21656,28139.54
1410,21676,28159.51
1411,21688,28179.48
1412,21704,28199.45
1413,21712,28219.42
1414,21724,28239.39
1415,21736,28259.36
1416,21744,28279.33
1417,21744,28299.31
1418,21708,28319.28
1419,21628,28339.25
1420,21532,28359.22
1421,21448,28379.19
1422,21392,28399.16
1423,21364,28419.13
1424,21356,28439.10
1425,21372,28459.08
1426,21392,28479.05
1427,21416,28499.02
1428,21440,28518.99
1429,21464,28538.96
1430,21476,28558.93
1431,21484,28578.90
1432,21484,28598.87
1433,21484,28618.85
1434,21472,28638.82
1435,21476,28658.79
1436,21484,28678.76
1437,21496,28698.73
1438,21512,28718.70
1439,21524,28738.67
1440,21544,28758.65
1441,21564,28778.62
1442,21576,28798.59
1443,21596,28818.56
1444,21608,28838.53
1445,21620,28858.50
1446,21636,28878.47
1447,21648,28898.44
1448,21660,28918.42
1449,21676,28938.39
1450,21680,28958.36
1451,21672,28978.33
1452,21620,28998.30
1453,21532,29018.27
1454,21436,29038.24
1455,21364,29058.21
1456,21324,29078.19
1457,21316,29098.16
1458,21324,29118.13
1459,21340,29138.10
1460,21364,29158.07
1461,21388,29178.04
1462,21412,29198.01
1463,21424,29217.98
1464,21436,29237.96
1465,21440,29257.93
1466,21440,29277.90
1467,21436,29297.87
1468,21436,29317.84
1469,21440,29337.81
1470,21452,29357.78
1471,21468,29377.75
1472,21484,29397.73
1473,21496,29417.70
1474,21520,29437.67
1475,21548,29457.64
1476,21572,29477.61
1477,21584,29497.58
1478,21596,29517.55
1479,21608,29537.53
1480,21628,29557.50
1481,21636,29577.47
1482,21648,29597.44
1483,21660,29617.41
1484,21680,29637.38
1485,21688,29657.35
1486,21680,29677.32
1487,21628,29697.30
1488,21544,29717.27
1489,21452,29737.24
1490,21388,29757.21
1491,21348,29777.18
1492,21340,29797.15
1493,21348,29817.12
1494,21372,29837.09
1495,21400,29857.07
1496,21432,29877.04
1497,21456,29897.01
1498,21472,29916.98
1499,21476,29936.95
1500,21484,29956.92
1501,21472,29976.89
1502,21468,29996.86
1503,21464,30016.84
1504,21472,30036.81
1505,21480,30056.78
1506,21496,30076.75
1507,21512,30096.72
1508,21528,30116.69
1509,21548,30136.66
1510,21568,30156.63
1511,21584,30176.61
1512,21600,30196.58
1513,21612,30216.55
1514,21620,30236.52
1515,21636,30256.49
1516,21648,30276.46
1517,21660,30296.43
1518,21668,30316.41
1519,21668,30336.38
1520,21628,30356.35
1521,21564,30376.32
1522,21484,30396.29
1523,21416,30416.26
1524,21372,30436.23
1525,21368,30456.20
1526,21368,30476.18
1527,21388,30496.15
1528,21416,30516.12
1529,21444,30536.09
1530,21476,30556.06
1531,21496,30576.03
1532,21508,30596.00
1533,21500,30615.97
1534,21484,30635.95
1535,21472,30655.92
1536,21464,30675.89
1537,21464,30695.86
1538,21472,30715.83
1539,21488,30735.80
1540,21500,30755.77
1541,21520,30775.74
1542,21536,30795.72
1543,21552,30815.69
1544,21564,30835.66
1545,21576,30855.63
1546,21584,30875.60
1547,21592,30895.57
1548,21600,30915.54
1549,21608,30935.51
1550,21580,30955.49
1551,21524,30975.46
1552,21448,30995.43
1553,21372,31015.40
1554,21324,31035.37
1555,21304,31055.34
1556,21308,31075.31
1557,21328,31095.28
1558,21356,31115.26
1559,21388,31135.23
1560,21420,31155.20
1561,21444,31175.17
1562,21452,31195.14
1563,21460,31215.11
1564,21452,31235.08
1565,21440,31255.06
1566,21436,31275.03
1567,21436,31295.00
1568,21440,31314.97
1569,21448,31334.94
1570,21468,31354.91
1571,21484,31374.88
1572,21500,31394.85
1573,21516,31414.83
1574,21532,31434.80
1575,21552,31454.77
1576,21564,31474.74
1577,21580,31494.71
1578,21592,31514.68
1579,21604,31534.65
1580,21604,31554.62
1581,21560,31574.60
1582,21476,31594.57
1583,21380,31614.54
1584,21296,31634.51
1585,21244,31654.48
1586,21228,31674.45
1587,21232,31694.42
1588,21252,31714.39
1589,21276,31734.37
1590,21304,31754.34
1591,21336,31774.31
1592,21360,31794.28
1593,21368,31814.25
1594,21372,31834.22
1595,21368,31854.19
1596,21360,31874.16
1597,21352,31894.14
1598,21352,31914.11
1599,21356,31934.08
1600,21364,31954.05
1601,21380,31974.02
1602,21396,31993.99
1603,21416,32013.96
1604,21428,32033.94
1605,21444,32053.91
1606,21456,32073.88
1607,21464,32093.85
1608,21480,32113.82
1609,21496,32133.79
1610,21512,32153.76
1611,21500,32173.73
1612,21448,32193.71
1613,21364,32213.68
1614,21272,32233.65
1615,21204,32253.62
1616,21164,32273.59
1617,21152,32293.56
1618,21164,32313.53
1619,21184,32333.50
1620,21212,32353.48
1621,21240,32373.45
1622,21264,32393.42
1623,21280,32413.39
1624,21288,32433.36
1625,21292,32453.33
1626,21296,32473.30
1627,21292,32493.27
1628,21288,32513.25
1629,21292,32533.22
1630,21300,32553.19
1631,21320,32573.16
1632,21332,32593.13
1633,21348,32613.10
1634,21364,32633.07
1635,21384,32653.04
1636,21400,32673.02
1637,21416,32692.99
1638,21432,32712.96
1639,21444,32732.93
1640,21456,32752.90
1641,21468,32772.87
1642,21476,32792.84
1643,21464,32812.82
1644,21404,32832.79
1645,21316,32852.76
1646,21228,32872.73
1647,21164,32892.70
1648,21132,32912.67
1649,21136,32932.64
1650,21156,32952.61
1651,21188,32972.59
1652,21216,32992.56
1653,21248,33012.53
1654,21276,33032.50
1655,21292,33052.47
1656,21304,33072.44
1657,21300,33092.41
1658,21296,33112.38
1659,21280,33132.36
1660,21276,33152.33
1661,21284,33172.30
1662,21296,33192.27
1663,21312,33212.24
1664,21332,33232.21
1665,21348,33252.18
1666,21364,33272.15
1667,21376,33292.13
1668,21388,33312.10
1669,21400,33332.07
1670,21412,33352.04
1671,21420,33372.01
1672,21432,33391.98
1673,21448,33411.95
1674,21452,33431.92
1675,21424,33451.90
1676,21352,33471.87
1677,21268,33491.84
1678,21192,33511.81
1679,21148,33531.78
1680,21136,33551.75
1681,21144,33571.72
1682,21168,33591.70
1683,21204,33611.67
1684,21236,33631.64
1685,21276,33651.61
1686,21296,33671.58
1687,21304,33691.55
1688,21308,33711.52
1689,21300,33731.49
1690,21288,33751.47
1691,21284,33771.44
1692,21284,33791.41
1693,21288,33811.38
1694,21300,33831.35
1695,21316,33851.32
1696,21336,33871.29
1697,21352,33891.26
1698,21372,33911.24
1699,21380,33931.21
1700,21388,33951.18
1701,21400,33971.15
1702,21412,33991.12
1703,21416,34011.09
1704,21416,34031.06
1705,21388,34051.03
1706,21320,34071.01
1707,21228,34090.98
1708,21148,34110.95
1709,21092,34130.92
1710,21068,34150.89
1711,21076,34170.86
1712,21100,34190.83
1713,21124,34210.80
1714,21168,34230.78
1715,21200,34250.75
1716,21224,34270.72
1717,21236,34290.69
1718,21240,34310.66
1719,21236,34330.63
1720,21224,34350.60
1721,21216,34370.58
1722,21220,34390.55
1723,21228,34410.52
1724,21248,34430.49
1725,21268,34450.46
1726,21288,34470.43
1727,21304,34490.40
1728,21320,34510.37
1729,21332,34530.35
1730,21344,34550.32
1731,21360,34570.29
1732,21376,34590.26
1733,21388,34610.23
1734,21396,34630.20
1735,21388,34650.17
1736,21336,34670.14
1737,21244,34690.12
1738,21136,34710.09
1739,21060,34730.06
1740,21020,34750.03
1741,21008,34770.00
1742,21020,34789.97
1743,21048,34809.94
1744,21068,34829.91
1745,21092,34849.89
1746,21116,34869.86
1747,21132,34889.83
1748,21140,34909.80
1749,21144,34929.77
1750,21144,34949.74
1751,21144,34969.71
1752,21144,34989.68
1753,21148,35009.66
1754,21160,35029.63
1755,21172,35049.60
1756,21200,35069.57
1757,21216,35089.54
1758,21232,35109.51
1759,21256,35129.48
1760,21272,35149.46
1761,21288,35169.43
1762,21304,35189.40
1763,21316,35209.37
1764,21328,35229.34
1765,21332,35249.31
1766,21316,35269.28
1767,21248,35289.25
1768,21148,35309.23
1769,21060,35329.20
1770,20996,35349.17
1771,20968,35369.14
1772,20972,35389.11
1773,20988,35409.08
1774,21008,35429.05
1775,21032,35449.02
1776,21064,35469.00
1777,21084,35488.97
1778,21096,35508.94
1779,21108,35528.91
1780,21100,35548.88
1781,21104,35568.85
1782,21104,35588.82
1783,21104,35608.79
1784,21112,35628.77
1785,21124,35648.74
1786,21144,35668.71
1787,21164,35688.68
1788,21180,35708.65
1789,21196,35728.62
1790,21216,35748.59
1791,21236,35768.56
1792,21248,35788.54
1793,21268,35808.51
1794,21284,35828.48
1795,21304,35848.45
1796,21296,35868.42
1797,21248,35888.39
1798,21156,35908.36
1799,21068,35928.34
1800,21008,35948.31
1801,20988,35968.28
1802,20988,35988.25
1803,21012,36008.22
1804,21036,36028.19
1805,21068,36048.16
1806,21104,36068.13
1807,21132,36088.11
1808,21152,36108.08
1809,21156,36128.05
1810,21152,36148.02
1811,21144,36167.99
1812,21140,36187.96
1813,21140,36207.93
1814,21148,36227.90
1815,21160,36247.88
1816,21176,36267.85
1817,21196,36287.82
1818,21212,36307.79
1819,21228,36327.76
1820,21248,36347.73
1821,21260,36367.70
1822,21272,36387.67
1823,21292,36407.65
1824,21308,36427.62
1825,21304,36447.59
1826,21268,36467.56
1827,21196,36487.53
1828,21108,36507.50
1829,21048,36527.47
1830,21012,36547.44
1831,21012,36567.42
1832,21024,36587.39
1833,21064,36607.36
1834,21096,36627.33
1835,21136,36647.30
1836,21168,36667.27
1837,21196,36687.24
1838,21204,36707.22
1839,21196,36727.19
1840,21188,36747.16
1841,21184,36767.13
1842,21180,36787.10
1843,21184,36807.07
1844,21196,36827.04
1845,21212,36847.01
1846,21228,36866.99
1847,21240,36886.96
1848,21252,36906.93
1849,21268,36926.90
1850,21276,36946.87
1851,21288,36966.84
1852,21304,36986.81
1853,21312,37006.78
1854,21276,37026.76
1855,21208,37046.73
1856,21116,37066.70
1857,21040,37086.67
1858,20996,37106.64
1859,20988,37126.61
1860,20996,37146.58
1861,21020,37166.55
1862,21060,37186.53
1863,21100,37206.50
1864,21136,37226.47
1865,21152,37246.44
1866,21164,37266.41
1867,21160,37286.38
1868,21152,37306.35
1869,21152,37326.32
1870,21156,37346.30
1871,21160,37366.27
1872,21176,37386.24
1873,21188,37406.21
1874,21208,37426.18
1875,21224,37446.15
1876,21240,37466.12
1877,21260,37486.09
1878,21276,37506.07
1879,21296,37526.04
1880,21316,37546.01
1881,21308,37565.98
1882,21264,37585.95
1883,21172,37605.92
1884,21068,37625.89
1885,20988,37645.87
1886,20944,37665.84
1887,20940,37685.81
1888,20956,37705.78
1889,20980,37725.75
1890,21016,37745.72
1891,21052,37765.69
1892,21080,37785.66
1893,21104,37805.64
1894,21108,37825.61
1895,21108,37845.58
1896,21108,37865.55
1897,21104,37885.52
1898,21100,37905.49
1899,21112,37925.46
1900,21124,37945.43
1901,21140,37965.41
1902,21160,37985.38
1903,21176,38005.35
1904,21192,38025.32
1905,21216,38045.29
1906,21232,38065.26
1907,21248,38085.23
1908,21264,38105.20
1909,21280,38125.18
1910,21268,38145.15
1911,21204,38165.12
1912,21108,38185.09
1913,21004,38205.06
1914,20932,38225.03
1915,20896,38245.00
1916,20896,38264.97
1917,20912,38284.95
1918,20940,38304.92
1919,20968,38324.89
1920,20996,38344.86
1921,21024,38364.83
1922,21044,38384.80
1923,21056,38404.77
1924,21060,38424.75
1925,21060,38444.72
1926,21060,38464.69
1927,21060,38484.66
1928,21068,38504.63
1929,21080,38524.60
1930,21096,38544.57
1931,21112,38564.54
1932,21132,38584.52
1933,21152,38604.49
1934,21172,38624.46
1935,21192,38644.43
1936,21212,38664.40
1937,21228,38684.37
1938,21248,38704.34
1939,21260,38724.31
1940,21264,38744.29
1941,21216,38764.26
1942,21124,38784.23
1943,21024,38804.20
1944,20944,38824.17
1945,20904,38844.14
1946,20896,38864.11
1947,20908,38884.08
1948,20936,38904.06
1949,20972,38924.03
1950,21012,38944.00
1951,21044,38963.97
1952,21072,38983.94
1953,21080,39003.91
1954,21088,39023.88
1955,21084,39043.85
1956,21080,39063.83
1957,21072,39083.80
1958,21076,39103.77
1959,21080,39123.74
1960,21088,39143.71
1961,21108,39163.68
1962,21128,39183.65
1963,21144,39203.63
1964,21164,39223.60
1965,21180,39243.57
1966,21196,39263.54
1967,21212,39283.51
1968,21228,39303.48
1969,21240,39323.45
1970,21248,39343.42
1971,21220,39363.40
1972,21152,39383.37
1973,21052,39403.34
1974,20972,39423.31
1975,20928,39443.28
1976,20912,39463.25
1977,20928,39483.22
1978,20952,39503.19
1979,20988,39523.17
1980,21028,39543.14
1981,21064,39563.11
1982,21092,39583.08
1983,21104,39603.05
1984,21108,39623.02
1985,21100,39642.99
1986,21088,39662.96
1987,21080,39682.94
1988,21084,39702.91
1989,21092,39722.88
1990,21112,39742.85
1991,21136,39762.82
1992,21160,39782.79
1993,21172,39802.76
1994,21192,39822.73
1995,21204,39842.71
1996,21224,39862.68
1997,21244,39882.65
1998,21252,39902.62
1999,21256,39922.59
2000,21236,39942.56
2001,21172,39962.53
2002,21076,39982.51
2003,20980,40002.48
2004,20916,40022.45
2005,20892,40042.42
2006,20892,40062.39
2007,20912,40082.36
2008,20936,40102.33
2009,20976,40122.30
2010,21012,40142.28
2011,21040,40162.25
2012,21056,40182.22
2013,21056,40202.19
2014,21048,40222.16
2015,21044,40242.13
2016,21040,40262.10
2017,21048,40282.07
2018,21056,40302.05
2019,21076,40322.02
2020,21092,40341.99
2021,21116,40361.96
2022,21136,40381.93
2023,21156,40401.90
2024,21164,40421.87
2025,21180,40441.84
2026,21196,40461.82
2027,21212,40481.79
2028,21220,40501.76
2029,21208,40521.73
2030,21148,40541.70
2031,21048,40561.67
2032,20948,40581.64
2033,20880,40601.61
2034,20848,40621.59
2035,20852,40641.56
2036,20864,40661.53
2037,20892,40681.50
2038,20920,40701.47
2039,20952,40721.44
2040,20980,40741.41
2041,21000,40761.39
2042,21008,40781.36
2043,21008,40801.33
2044,21000,40821.30
2045,20996,40841.27
2046,20996,40861.24
2047,21008,40881.21
2048,21020,40901.18
2049,21036,40921.16
2050,21056,40941.13
2051,21080,40961.10
2052,21096,40981.07
2053,21112,41001.04
2054,21124,41021.01
2055,21140,41040.98
2056,21152,41060.95
2057,21172,41080.93
2058,21184,41100.90
2059,21176,41120.87
2060,21124,41140.84
2061,21024,41160.81
2062,20924,41180.78
2063,20852,41200.75
2064,20812,41220.72
2065,20812,41240.70
2066,20828,41260.67
2067,20852,41280.64
2068,20884,41300.61
2069,20912,41320.58
2070,20940,41340.55
2071,20956,41360.52
2072,20968,41380.49
2073,20968,41400.47
2074,20968,41420.44
2075,20960,41440.41
2076,20964,41460.38
2077,20976,41480.35
2078,20984,41500.32
2079,21004,41520.29
2080,21020,41540.27
2081,21036,41560.24
2082,21056,41580.21
2083,21076,41600.18
2084,21096,41620.15
2085,21112,41640.12
2086,21128,41660.09
2087,21144,41680.06
2088,21160,41700.04
2089,21172,41720.01
2090,21184,41739.98
2091,21204,41759.95
2092,21196,41779.92
2093,21148,41799.89
2094,21056,41819.86
2095,20960,41839.83
2096,20888,41859.81
2097,20852,41879.78
2098,20848,41899.75
2099,20860,41919.72
2100,20892,41939.69
2101,20924,41959.66
2102,20964,41979.63
2103,20992,41999.60
2104,21016,42019.58
2105,21020,42039.55
2106,21024,42059.52
2107,21016,42079.49
2108,21008,42099.46
2109,21004,42119.43
2110,21012,42139.40
2111,21020,42159.37
2112,21040,42179.35
2113,21060,42199.32
2114,21080,42219.29
2115,21100,42239.26
2116,21116,42259.23
2117,21132,42279.20
2118,21148,42299.17
2119,21160,42319.15
2120,21176,42339.12
2121,21184,42359.09
2122,21204,42379.06
2123,21216,42399.03
2124,21232,42419.00
2125,21236,42438.97
2126,21200,42458.94
2127,21120,42478.92
2128,21024,42498.89
2129,20952,42518.86
2130,20912,42538.83
2131,20904,42558.80
2132,20924,42578.77
2133,20952,42598.74
2134,20988,42618.71
2135,21024,42638.69
2136,21056,42658.66
2137,21080,42678.63
2138,21092,42698.60
2139,21088,42718.57
2140,21076,42738.54
2141,21064,42758.51
2142,21064,42778.48
2143,21068,42798.46
2144,21076,42818.43
2145,21088,42838.40
2146,21108,42858.37
2147,21124,42878.34
2148,21144,42898.31
2149,21156,42918.28
2150,21176,42938.25
2151,21188,42958.23
2152,21200,42978.20
2153,21208,42998.17
2154,21216,43018.14
2155,21232,43038.11
2156,21232,43058.08
2157,21180,43078.05
2158,21084,43098.03
2159,20984,43118.00
2160,20908,43137.97
2161,20868,43157.94
2162,20860,43177.91
2163,20880,43197.88
2164,20904,43217.85
2165,20940,43237.82
2166,20980,43257.80
2167,21016,43277.77
2168,21044,43297.74
2169,21052,43317.71
2170,21048,43337.68
2171,21044,43357.65
2172,21044,43377.62
2173,21040,43397.59
2174,21048,43417.57
2175,21060,43437.54
2176,21080,43457.51
2177,21092,43477.48
2178,21112,43497.45
2179,21128,43517.42
2180,21144,43537.39
2181,21156,43557.36
2182,21172,43577.34
2183,21184,43597.31
2184,21196,43617.28
2185,21216,43637.25
2186,21232,43657.22
2187,21232,43677.19
2188,21172,43697.16
2189,21076,43717.13
2190,20964,43737.11
2191,20884,43757.08
2192,20844,43777.05
2193,20836,43797.02
2194,20852,43816.99
2195,20880,43836.96
2196,20916,43856.93
2197,20952,43876.91
2198,20984,43896.88
2199,21008,43916.85
2200,21020,43936.82
2201,21024,43956.79
2202,21020,43976.76
2203,21016,43996.73
2204,21016,44016.70
2205,21020,44036.68
2206,21032,44056.65
2207,21048,44076.62
2208,21068,44096.59
2209,21084,44116.56
2210,21104,44136.53
2211,21124,44156.50
2212,21136,44176.47
2213,21152,44196.45
2214,21168,44216.42
2215,21180,44236.39
2216,21188,44256.36
2217,21204,44276.33
2218,21204,44296.30
2219,21172,44316.27
2220,21096,44336.24
2221,20988,44356.22
2222,20896,44376.19
2223,20832,44396.16
2224,20808,44416.13
2225,20812,44436.10
2226,20832,44456.07
2227,20868,44476.04
2228,20904,44496.01
2229,20940,44515.99
2230,20964,44535.96
2231,20980,44555.93
2232,20992,44575.90
2233,20992,44595.87
2234,20996,44615.84
2235,20996,44635.81
2236,21000,44655.78
2237,21008,44675.76
2238,21024,44695.73
2239,21044,44715.70
2240,21072,44735.67
2241,21092,44755.64
2242,21108,44775.61
2243,21128,44795.58
2244,21152,44815.56
2245,21164,44835.53
2246,21184,44855.50
2247,21200,44875.47
2248,21220,44895.44
2249,21240,44915.41
2250,21252,44935.38
2251,21248,44955.35
2252,21196,44975.33
2253,21100,44995.30
2254,20996,45015.27
2255,20916,45035.24
2256,20872,45055.21
2257,20864,45075.18
2258,20880,45095.15
2259,20912,45115.12
2260,20948,45135.10
2261,20988,45155.07
2262,21020,45175.04
2263,21044,45195.01
2264,21056,45214.98
2265,21056,45234.95
2266,21052,45254.92
2267,21044,45274.89
2268,21048,45294.87
2269,21056,45314.84
2270,21064,45334.81
2271,21084,45354.78
2272,21100,45374.75
2273,21120,45394.72
2274,21140,45414.69
2275,21160,45434.66
2276,21180,45454.64
2277,21200,45474.61
2278,21216,45494.58
2279,21232,45514.55
2280,21252,45534.52
2281,21268,45554.49
2282,21276,45574.46
2283,21248,45594.44
2284,21176,45614.41
2285,21076,45634.38
2286,20992,45654.35
2287,20936,45674.32
2288,20924,45694.29
2289,20932,45714.26
2290,20956,45734.23
2291,20984,45754.21
2292,21024,45774.18
2293,21056,45794.15
2294,21088,45814.12
2295,21100,45834.09
2296,21100,45854.06
2297,21092,45874.03
2298,21084,45894.00
2299,21080,45913.98
2300,21076,45933.95
2301,21076,45953.92
2302,21092,45973.89
2303,21112,45993.86
2304,21128,46013.83
2305,21148,46033.80
2306,21164,46053.77
2307,21180,46073.75
2308,21196,46093.72
2309,21212,46113.69
2310,21228,46133.66
2311,21244,46153.63
2312,21224,46173.60
2313,21164,46193.57
2314,21072,46213.54
2315,20988,46233.52
2316,20928,46253.49
2317,20904,46273.46
2318,20904,46293.43
2319,20928,46313.40
2320,20960,46333.37
2321,20996,46353.34
2322,21024,46373.32
2323,21044,46393.29
2324,21052,46413.26
2325,21048,46433.23
2326,21032,46453.20
2327,21020,46473.17
2328,21012,46493.14
2329,21012,46513.11
2330,21024,46533.09
2331,21044,46553.06
2332,21056,46573.03
2333,21072,46593.00
2334,21092,46612.97
2335,21112,46632.94
2336,21124,46652.91
2337,21140,46672.88
2338,21152,46692.86
2339,21164,46712.83
2340,21176,46732.80
2341,21144,46752.77
2342,21068,46772.74
2343,20968,46792.71
2344,20880,46812.68
2345,20820,46832.65
2346,20800,46852.63
2347,20808,46872.60
2348,20832,46892.57
2349,20860,46912.54
2350,20896,46932.51
2351,20928,46952.48
2352,20956,46972.45
2353,20972,46992.42
2354,20980,47012.40
2355,20980,47032.37
2356,20976,47052.34
2357,20972,47072.31
2358,20980,47092.28
2359,20988,47112.25
2360,21004,47132.22
2361,21020,47152.20
2362,21040,47172.17
2363,21060,47192.14
2364,21076,47212.11
2365,21092,47232.08
2366,21104,47252.05
2367,21116,47272.02
2368,21128,47291.99
2369,21140,47311.97
2370,21140,47331.94
2371,21092,47351.91
2372,20996,47371.88
2373,20892,47391.85
2374,20808,47411.82
2375,20764,47431.79
2376,20752,47451.76
2377,20764,47471.74
2378,20788,47491.71
2379,20816,47511.68
2380,20848,47531.65
2381,20876,47551.62
2382,20900,47571.59
2383,20908,47591.56
2384,20916,47611.53
2385,20920,47631.51
2386,20916,47651.48
2387,20920,47671.45
2388,20928,47691.42
2389,20936,47711.39
2390,20956,47731.36
2391,20972,47751.33
2392,20996,47771.30
2393,21012,47791.28
2394,21032,47811.25
2395,21048,47831.22
2396,21064,47851.19
2397,21084,47871.16
2398,21096,47891.13
2399,21108,47911.10
2400,21124,47931.08
2401,21140,47951.05
2402,21156,47971.02
2403,21148,47990.99
2404,21084,48010.96
2405,20992,48030.93
2406,20884,48050.90
2407,20812,48070.87
2408,20776,48090.85
2409,20776,48110.82
2410,20796,48130.79
2411,20820,48150.76
2412,20852,48170.73
2413,20884,48190.70
2414,20912,48210.67
2415,20936,48230.64
2416,20952,48250.62
2417,20956,48270.59
2418,20960,48290.56
2419,20956,48310.53
2420,20960,48330.50
2421,20964,48350.47
2422,20980,48370.44
2423,20992,48390.41
2424,21012,48410.39
2425,21032,48430.36
2426,21056,48450.33
2427,21076,48470.30
2428,21092,48490.27
2429,21104,48510.24
2430,21116,48530.21
2431,21124,48550.18
2432,21136,48570.16
2433,21144,48590.13
2434,21152,48610.10
2435,21168,48630.07
2436,21180,48650.04
2437,21196,48670.01
2438,21192,48689.98
2439,21132,48709.96
2440,21040,48729.93
2441,20944,48749.90
2442,20876,48769.87
2443,20844,48789.84
2444,20844,48809.81
2445,20864,48829.78
2446,20896,48849.75
2447,20928,48869.73
2448,20960,48889.70
2449,20988,48909.67
2450,21000,48929.64
2451,21008,48949.61
2452,21004,48969.58
2453,20992,48989.55
2454,20988,49009.52
2455,20988,49029.50
2456,20996,49049.47
2457,21004,49069.44
2458,21028,49089.41
2459,21044,49109.38
2460,21064,49129.35
2461,21084,49149.32
2462,21104,49169.29
2463,21120,49189.27
2464,21140,49209.24
2465,21152,49229.21
2466,21164,49249.18
2467,21176,49269.15
2468,21188,49289.12
2469,21204,49309.09
2470,21212,49329.06
2471,21200,49349.04
2472,21144,49369.01
2473,21056,49388.98
2474,20968,49408.95
2475,20900,49428.92
2476,20872,49448.89
2477,20872,49468.86
2478,20888,49488.84
2479,20912,49508.81
2480,20944,49528.78
2481,20972,49548.75
2482,21004,49568.72
2483,21016,49588.69
2484,21016,49608.66
2485,21008,49628.63
2486,20992,49648.61
2487,20984,49668.58
2488,20976,49688.55
2489,20980,49708.52
2490,20992,49728.49
2491,21008,49748.46
2492,21024,49768.43
2493,21044,49788.40
2494,21068,49808.38
2495,21084,49828.35
2496,21096,49848.32
2497,21112,49868.29
2498,21128,49888.26
2499,21144,49908.23
2500,21156,49928.20
2501,21172,49948.17
2502,21188,49968.15
2503,21200,49988.12
2504,21208,50008.09
2505,21172,50028.06
2506,21100,50048.03
2507,20992,50068.00
2508,20904,50087.97
2509,20840,50107.94
2510,20820,50127.92
2511,20828,50147.89
2512,20844,50167.86
2513,20868,50187.83
2514,20900,50207.80
2515,20928,50227.77
2516,20948,50247.74
2517,20960,50267.72
2518,20972,50287.69
2519,20976,50307.66
2520,20980,50327.63
2521,20976,50347.60
2522,20980,50367.57
2523,20992,50387.54
2524,21004,50407.51
2525,21016,50427.49
2526,21040,50447.46
2527,21060,50467.43
2528,21080,50487.40
2529,21100,50507.37
2530,21116,50527.34
2531,21128,50547.31
2532,21144,50567.28
2533,21164,50587.26
2534,21176,50607.23
2535,21192,50627.20
2536,21204,50647.17
2537,21220,50667.14
2538,21236,50687.11
2539,21244,50707.08
2540,21232,50727.05
2541,21168,50747.03
2542,21064,50767.00
2543,20960,50786.97
2544,20888,50806.94
2545,20848,50826.91
2546,20844,50846.88
2547,20856,50866.85
2548,20876,50886.82
2549,20900,50906.80
2550,20924,50926.77
2551,20952,50946.74
2552,20968,50966.71
2553,20984,50986.68
2554,20984,51006.65
2555,20992,51026.62
2556,20996,51046.59
2557,21000,51066.57
2558,21004,51086.54
2559,21020,51106.51
2560,21028,51126.48
2561,21048,51146.45
2562,21064,51166.42
2563,21092,51186.39
2564,21112,51206.37
2565,21132,51226.34
2566,21148,51246.31
2567,21164,51266.28
2568,21184,51286.25
2569,21204,51306.22
2570,21224,51326.19
2571,21240,51346.16
2572,21252,51366.14
2573,21264,51386.11
2574,21280,51406.08
2575,21300,51426.05
2576,21316,51446.02
2577,21300,51465.99
2578,21228,51485.96
2579,21128,51505.93
2580,21028,51525.91
2581,20960,51545.88
2582,20924,51565.85
2583,20924,51585.82
2584,20936,51605.79
2585,20960,51625.76
2586,20996,51645.73
2587,21028,51665.70
2588,21060,51685.68
2589,21072,51705.65
2590,21080,51725.62
2591,21084,51745.59
2592,21080,51765.56
2593,21080,51785.53
2594,21080,51805.50
2595,21088,51825.47
2596,21096,51845.45
2597,21112,51865.42
2598,21128,51885.39
2599,21148,51905.36
2600,21168,51925.33
2601,21188,51945.30
2602,21204,51965.27
2603,21220,51985.25
2604,21240,52005.22
2605,21260,52025.19
2606,21272,52045.16
2607,21288,52065.13
2608,21300,52085.10
2609,21316,52105.07
2610,21328,52125.04
2611,21340,52145.02
2612,21356,52164.99
2613,21348,52184.96
2614,21288,52204.93
2615,21200,52224.90
2616,21108,52244.87
2617,21036,52264.84
2618,20992,52284.81
2619,20992,52304.79
2620,21008,52324.76
2621,21036,52344.73
2622,21068,52364.70
2623,21108,52384.67
2624,21144,52404.64
2625,21168,52424.61
2626,21172,52444.58
2627,21172,52464.56
2628,21156,52484.53
2629,21152,52504.50
2630,21144,52524.47
2631,21144,52544.44
2632,21148,52564.41
2633,21164,52584.38
2634,21180,52604.35
2635,21200,52624.33
2636,21216,52644.30
2637,21232,52664.27
2638,21240,52684.24
2639,21256,52704.21
2640,21272,52724.18
2641,21288,52744.15
2642,21296,52764.13
2643,21312,52784.10
2644,21332,52804.07
2645,21340,52824.04
2646,21328,52844.01
2647,21260,52863.98
2648,21160,52883.95
2649,21064,52903.92
2650,20988,52923.90
2651,20952,52943.87
2652,20944,52963.84
2653,20964,52983.81
2654,20992,53003.78
2655,21020,53023.75
2656,21052,53043.72
2657,21080,53063.69
2658,21104,53083.67
2659,21112,53103.64
2660,21116,53123.61
2661,21112,53143.58
2662,21104,53163.55
2663,21104,53183.52
2664,21112,53203.49
2665,21116,53223.46
2666,21132,53243.44
2667,21148,53263.41
2668,21164,53283.38
2669,21184,53303.35
2670,21204,53323.32
2671,21216,53343.29
2672,21232,53363.26
2673,21244,53383.23
2674,21260,53403.21
2675,21276,53423.18
2676,21288,53443.15
2677,21300,53463.12
2678,21268,53483.09
2679,21188,53503.06
2680,21080,53523.03
2681,20988,53543.01
2682,20924,53562.98
2683,20896,53582.95
2684,20896,53602.92
2685,20920,53622.89
2686,20948,53642.86
2687,20984,53662.83
2688,21016,53682.80
2689,21040,53702.78
2690,21056,53722.75
2691,21068,53742.72
2692,21068,53762.69
2693,21064,53782.66
2694,21064,53802.63
2695,21064,53822.60
2696,21076,53842.57
2697,21092,53862.55
2698,21104,53882.52
2699,21124,53902.49
2700,21144,53922.46
2701,21164,53942.43
2702,21180,53962.40
2703,21196,53982.37
2704,21208,54002.34
2705,21220,54022.32
2706,21232,54042.29
2707,21252,54062.26
2708,21264,54082.23
2709,21248,54102.20
2710,21184,54122.17
2711,21080,54142.14
2712,20976,54162.11
2713,20904,54182.09
2714,20864,54202.06
2715,20860,54222.03
2716,20876,54242.00
2717,20904,54261.97
2718,20936,54281.94
2719,20972,54301.91
2720,20996,54321.89
2721,21024,54341.86
2722,21036,54361.83
2723,21040,54381.80
2724,21044,54401.77
2725,21044,54421.74
2726,21056,54441.71
2727,21060,54461.68
2728,21080,54481.66
2729,21092,54501.63
2730,21108,54521.60
2731,21124,54541.57
2732,21148,54561.54
2733,21164,54581.51
2734,21184,54601.48
2735,21204,54621.45
2736,21224,54641.43
2737,21236,54661.40
2738,21252,54681.37
2739,21272,54701.34
2740,21272,54721.31
2741,21236,54741.28
2742,21156,54761.25
2743,21056,54781.22
2744,20968,54801.20
2745,20920,54821.17
2746,20904,54841.14
2747,20912,54861.11
2748,20940,54881.08
2749,20968,54901.05
2750,21000,54921.02
2751,21036,54940.99
2752,21056,54960.97
2753,21072,54980.94
2754,21080,55000.91
2755,21080,55020.88
2756,21076,55040.85
2757,21076,55060.82
2758,21084,55080.79
2759,21092,55100.77
2760,21104,55120.74
2761,21120,55140.71
2762,21140,55160.68
2763,21160,55180.65
2764,21180,55200.62
2765,21196,55220.59
2766,21208,55240.56
2767,21220,55260.54
2768,21240,55280.51
2769,21256,55300.48
2770,21264,55320.45
2771,21220,55340.42
2772,21148,55360.39
2773,21060,55380.36
2774,20984,55400.33
2775,20940,55420.31
2776,20924,55440.28
2777,20936,55460.25
2778,20956,55480.22
2779,20988,55500.19
2780,21020,55520.16
2781,21052,55540.13
2782,21072,55560.10
2783,21084,55580.08
2784,21084,55600.05
2785,21076,55620.02
2786,21068,55639.99
2787,21068,55659.96
2788,21072,55679.93
2789,21076,55699.90
2790,21088,55719.87
2791,21104,55739.85
2792,21120,55759.82
2793,21140,55779.79
2794,21152,55799.76
2795,21168,55819.73
2796,21176,55839.70
2797,21196,55859.67
2798,21208,55879.65
2799,21212,55899.62
2800,21176,55919.59
2801,21096,55939.56
2802,21000,55959.53
2803,20924,55979.50
2804,20876,55999.47
2805,20860,56019.44
2806,20872,56039.42
2807,20900,56059.39
2808,20932,56079.36
2809,20964,56099.33
2810,20996,56119.30
2811,21020,56139.27
2812,21028,56159.24
2813,21020,56179.21
2814,21004,56199.19
2815,20988,56219.16
2816,20976,56239.13
2817,20972,56259.10
2818,20980,56279.07
2819,21000,56299.04
2820,21012,56319.01
2821,21032,56338.98
2822,21044,56358.96
2823,21068,56378.93
2824,21076,56398.90
2825,21088,56418.87
2826,21104,56438.84
2827,21116,56458.81
2828,21104,56478.78
2829,21040,56498.75
2830,20948,56518.73
2831,20848,56538.70
2832,20784,56558.67
2833,20756,56578.64
2834,20756,56598.61
2835,20776,56618.58
2836,20804,56638.55
2837,20840,56658.53
2838,20872,56678.50
2839,20900,56698.47
2840,20920,56718.44
2841,20932,56738.41
2842,20932,56758.38
2843,20928,56778.35
2844,20924,56798.32
2845,20928,56818.30
2846,20936,56838.27
2847,20952,56858.24
2848,20972,56878.21
2849,20988,56898.18
2850,21004,56918.15
2851,21016,56938.12
2852,21032,56958.09
2853,21044,56978.07
2854,21060,56998.04
2855,21068,57018.01
2856,21084,57037.98
2857,21092,57057.95
2858,21084,57077.92
2859,21024,57097.89
2860,20920,57117.86
2861,20816,57137.84
2862,20740,57157.81
2863,20700,57177.78
2864,20692,57197.75
2865,20708,57217.72
2866,20736,57237.69
2867,20764,57257.66
2868,20792,57277.63
2869,20824,57297.61
2870,20844,57317.58
2871,20860,57337.55
2872,20864,57357.52
2873,20868,57377.49
2874,20868,57397.46
2875,20868,57417.43
2876,20872,57437.41
2877,20888,57457.38
2878,20908,57477.35
2879,20920,57497.32
2880,20940,57517.29
2881,20952,57537.26
2882,20976,57557.23
2883,20992,57577.20
2884,21012,57597.18
2885,21028,57617.15
2886,21040,57637.12
2887,21052,57657.09
2888,21072,57677.06
2889,21092,57697.03
2890,21092,57717.00
2891,21040,57736.97
2892,20944,57756.95
2893,20840,57776.92
2894,20756,57796.89
2895,20712,57816.86
2896,20700,57836.83
2897,20712,57856.80
2898,20736,57876.77
2899,20772,57896.74
2900,20808,57916.72
2901,20836,57936.69
2902,20860,57956.66
2903,20876,57976.63
2904,20884,57996.60
2905,20888,58016.57
2906,20884,58036.54
2907,20884,58056.51
2908,20892,58076.49
2909,20904,58096.46
2910,20920,58116.43
2911,20944,58136.40
2912,20960,58156.37
2913,20976,58176.34
2914,21000,58196.31
2915,21016,58216.28
2916,21036,58236.26
2917,21052,58256.23
2918,21072,58276.20
2919,21084,58296.17
2920,21100,58316.14
2921,21112,58336.11
2922,21124,58356.08
2923,21140,58376.06
2924,21152,58396.03
2925,21132,58416.00
2926,21060,58435.97
2927,20956,58455.94
2928,20856,58475.91
2929,20800,58495.88
2930,20772,58515.85
2931,20772,58535.83
2932,20792,58555.80
2933,20828,58575.77
2934,20864,58595.74
2935,20900,58615.71
2936,20932,58635.68
2937,20956,58655.65
2938,20964,58675.62
2939,20960,58695.60
2940,20956,58715.57
2941,20948,58735.54
2942,20948,58755.51
2943,20960,58775.48
2944,20976,58795.45
2945,20996,58815.42
2946,21016,58835.39
2947,21032,58855.37
2948,21052,58875.34
2949,21072,58895.31
2950,21088,58915.28
2951,21104,58935.25
2952,21116,58955.22
2953,21132,58975.19
2954,21148,58995.16
2955,21164,59015.14
2956,21172,59035.11
2957,21156,59055.08
2958,21084,59075.05
2959,20988,59095.02
2960,20888,59114.99
2961,20824,59134.96
2962,20796,59154.94
2963,20800,59174.91
2964,20824,59194.88
2965,20860,59214.85
2966,20896,59234.82
2967,20928,59254.79
2968,20960,59274.76
2969,20980,59294.73
2970,20984,59314.71
2971,20976,59334.68
2972,20964,59354.65
2973,20952,59374.62
2974,20952,59394.59
2975,20964,59414.56
2976,20976,59434.53
2977,20992,59454.50
2978,21004,59474.48
2979,21020,59494.45
2980,21036,59514.42
2981,21052,59534.39
2982,21072,59554.36
2983,21088,59574.33
2984,21100,59594.30
2985,21116,59614.27
2986,21128,59634.25
2987,21124,59654.22
2988,21068,59674.19
2989,20968,59694.16
2990,20852,59714.13
2991,20764,59734.10
2992,20708,59754.07
2993,20700,59774.04
2994,20712,59794.02
2995,20740,59813.99
2996,20772,59833.96
2997,20808,59853.93
2998,20848,59873.90
2999,20876,59893.87
