Sample_Index,IR_Value,Timestamp_ms
0,20844,0.00
1,20888,20.50
2,20656,41.00
3,20372,61.50
4,20316,82.00
5,20532,102.49
6,20528,122.99
7,20344,143.49
8,20224,163.99
9,20052,184.49
10,19832,204.99
11,19728,225.49
12,19724,245.99
13,19772,266.49
14,19688,286.99
15,19548,307.48
16,19308,327.98
17,19188,348.48
18,19136,368.98
19,19172,389.48
20,19204,409.98
21,19216,430.48
22,19220,450.98
23,19232,471.48
24,19252,491.98
25,19284,512.47
26,19328,532.97
27,19356,553.47
28,19384,573.97
29,19448,594.47
30,19596,614.97
31,19656,635.47
32,19652,655.97
33,19632,676.47
34,19572,696.97
35,19508,717.46
36,19492,737.96
37,19520,758.46
38,19544,778.96
39,19584,799.46
40,19660,819.96
41,19768,840.46
42,19864,860.96
43,19928,881.46
44,19972,901.96
45,20000,922.45
46,20040,942.95
47,20112,963.45
48,20188,983.95
49,20244,1004.45
50,20272,1024.95
51,20300,1045.45
52,20344,1065.95
53,20416,1086.45
54,20464,1106.94
55,20488,1127.44
56,20496,1147.94
57,20500,1168.44
58,20476,1188.94
59,20460,1209.44
60,20456,1229.94
61,20496,1250.44
62,20508,1270.94
63,20464,1291.44
64,20408,1311.93
65,20360,1332.43
66,20312,1352.93
67,20260,1373.43
68,20184,1393.93
69,20116,1414.43
70,20072,1434.93
71,20028,1455.43
72,19972,1475.93
73,19920,1496.43
74,19888,1516.92
75,19856,1537.42
76,19828,1557.92
77,19800,1578.42
78,19788,1598.92
79,19780,1619.42
80,19780,1639.92
81,19784,1660.42
82,19796,1680.92
83,19804,1701.42
84,19808,1721.91
85,19804,1742.41
86,19804,1762.91
87,19812,1783.41
88,19824,1803.91
89,19840,1824.41
90,19848,1844.91
91,19872,1865.41
92,19924,1885.91
93,19984,1906.40
94,20028,1926.90
95,20080,1947.40
96,20120,1967.90
97,20156,1988.40
98,20184,2008.90
99,20172,2029.40
100,20136,2049.90
101,20100,2070.40
102,20052,2090.90
103,20000,2111.39
104,19960,2131.89
105,19928,2152.39
106,19900,2172.89
107,19876,2193.39
108,19848,2213.89
109,19828,2234.39
110,19808,2254.89
111,19800,2275.39
112,19804,2295.89
113,19796,2316.38
114,19768,2336.88
115,19728,2357.38
116,19688,2377.88
117,19640,2398.38
118,19604,2418.88
119,19564,2439.38
120,19540,2459.88
121,19528,2480.38
122,19520,2500.88
123,19512,2521.37
124,19500,2541.87
125,19488,2562.37
126,19480,2582.87
127,19472,2603.37
128,19464,2623.87
129,19456,2644.37
130,19452,2664.87
131,19444,2685.37
132,19440,2705.87
133,19436,2726.36
134,19432,2746.86
135,19428,2767.36
136,19424,2787.86
137,19416,2808.36
138,19408,2828.86
139,19412,2849.36
140,19412,2869.86
141,19416,2890.36
142,19420,2910.85
143,19416,2931.35
144,19404,2951.85
145,19384,2972.35
146,19356,2992.85
147,19324,3013.35
148,19296,3033.85
149,19280,3054.35
150,19276,3074.85
151,19276,3095.35
152,19272,3115.84
153,19276,3136.34
154,19284,3156.84
155,19288,3177.34
156,19296,3197.84
157,19300,3218.34
158,19304,3238.84
159,19304,3259.34
160,19304,3279.84
161,19308,3300.34
162,19312,3320.83
163,19312,3341.33
164,19316,3361.83
165,19324,3382.33
166,19332,3402.83
167,19336,3423.33
168,19348,3443.83
169,19356,3464.33
170,19360,3484.83
171,19364,3505.33
172,19368,3525.82
173,19372,3546.32
174,19372,3566.82
175,19368,3587.32
176,19356,3607.82
177,19332,3628.32
178,19304,3648.82
179,19276,3669.32
180,19256,3689.82
181,19244,3710.32
182,19240,3730.81
183,19236,3751.31
184,19244,3771.81
185,19248,3792.31
186,19260,3812.81
187,19272,3833.31
188,19280,3853.81
189,19284,3874.31
190,19280,3894.81
191,19280,3915.30
192,19280,3935.80
193,19276,3956.30
194,19280,3976.80
195,19280,3997.30
196,19288,4017.80
197,19296,4038.30
198,19300,4058.80
199,19308,4079.30
200,19312,4099.80
201,19316,4120.29
202,19320,4140.79
203,19320,4161.29
204,19320,4181.79
205,19320,4202.29
206,19312,4222.79
207,19304,4243.29
208,19284,4263.79
209,19252,4284.29
210,19216,4304.79
211,19184,4325.28
212,19164,4345.78
213,19152,4366.28
214,19148,4386.78
215,19152,4407.28
216,19156,4427.78
217,19168,4448.28
218,19188,4468.78
219,19192,4489.28
220,19196,4509.78
221,19196,4530.27
222,19196,4550.77
223,19200,4571.27
224,19204,4591.77
225,19208,4612.27
226,19212,4632.77
227,19220,4653.27
228,19236,4673.77
229,19244,4694.27
230,19264,4714.76
231,19280,4735.26
232,19296,4755.76
233,19312,4776.26
234,19328,4796.76
235,19348,4817.26
236,19356,4837.76
237,19352,4858.26
238,19336,4878.76
239,19320,4899.26
240,19296,4919.75
241,19284,4940.25
242,19276,4960.75
243,19276,4981.25
244,19280,5001.75
245,19280,5022.25
246,19284,5042.75
247,19288,5063.25
248,19292,5083.75
249,19296,5104.25
250,19296,5124.74
251,19296,5145.24
252,19292,5165.74
253,19292,5186.24
254,19288,5206.74
255,19288,5227.24
256,19288,5247.74
257,19292,5268.24
258,19300,5288.74
259,19304,5309.24
260,19308,5329.73
261,19312,5350.23
262,19316,5370.73
263,19320,5391.23
264,19324,5411.73
265,19324,5432.23
266,19312,5452.73
267,19296,5473.23
268,19276,5493.73
269,19260,5514.23
270,19256,5534.72
271,19252,5555.22
272,19260,5575.72
273,19272,5596.22
274,19284,5616.72
275,19292,5637.22
276,19304,5657.72
277,19316,5678.22
278,19320,5698.72
279,19320,5719.21
280,19316,5739.71
281,19320,5760.21
282,19312,5780.71
283,19316,5801.21
284,19312,5821.71
285,19316,5842.21
286,19316,5862.71
287,19320,5883.21
288,19320,5903.71
289,19324,5924.20
290,19328,5944.70
291,19336,5965.20
292,19340,5985.70
293,19336,6006.20
294,19320,6026.70
295,19296,6047.20
296,19272,6067.70
297,19248,6088.20
298,19232,6108.70
299,19220,6129.19
300,19228,6149.69
301,19236,6170.19
302,19248,6190.69
303,19264,6211.19
304,19280,6231.69
305,19292,6252.19
306,19296,6272.69
307,19300,6293.19
308,19304,6313.69
309,19300,6334.18
310,19304,6354.68
311,19308,6375.18
312,19316,6395.68
313,19316,6416.18
314,19324,6436.68
315,19332,6457.18
316,19340,6477.68
317,19348,6498.18
318,19356,6518.68
319,19360,6539.17
320,19368,6559.67
321,19376,6580.17
322,19388,6600.67
323,19388,6621.17
324,19380,6641.67
325,19360,6662.17
326,19340,6682.67
327,19320,6703.17
328,19308,6723.66
329,19312,6744.16
330,19312,6764.66
331,19316,6785.16
332,19328,6805.66
333,19340,6826.16
334,19348,6846.66
335,19352,6867.16
336,19356,6887.66
337,19360,6908.16
338,19364,6928.65
339,19360,6949.15
340,19360,6969.65
341,19360,6990.15
342,19364,7010.65
343,19372,7031.15
344,19372,7051.65
345,19380,7072.15
346,19392,7092.65
347,19396,7113.15
348,19408,7133.64
349,19420,7154.14
350,19424,7174.64
351,19428,7195.14
352,19436,7215.64
353,19448,7236.14
354,19460,7256.64
355,19468,7277.14
356,19460,7297.64
357,19452,7318.14
358,19436,7338.63
359,19420,7359.13
360,19408,7379.63
361,19404,7400.13
362,19404,7420.63
363,19408,7441.13
364,19416,7461.63
365,19420,7482.13
366,19432,7502.63
367,19432,7523.12
368,19444,7543.62
369,19448,7564.12
370,19456,7584.62
371,19460,7605.12
372,19460,7625.62
373,19460,7646.12
374,19464,7666.62
375,19464,7687.12
376,19476,7707.62
377,19484,7728.11
378,19488,7748.61
379,19496,7769.11
380,19504,7789.61
381,19504,7810.11
382,19508,7830.61
383,19512,7851.11
384,19520,7871.61
385,19524,7892.11
386,19532,7912.61
387,19540,7933.10
388,19548,7953.60
389,19556,7974.10
390,19564,7994.60
391,19564,8015.10
392,19572,8035.60
393,19564,8056.10
394,19568,8076.60
395,19568,8097.10
396,19576,8117.60
397,19584,8138.09
398,19584,8158.59
399,19592,8179.09
400,19596,8199.59
401,19600,8220.09
402,19608,8240.59
403,19616,8261.09
404,19612,8281.59
405,19620,8302.09
406,19620,8322.59
407,19620,8343.08
408,19624,8363.58
409,19624,8384.08
410,19620,8404.58
411,19624,8425.08
412,19628,8445.58
413,19628,8466.08
414,19632,8486.58
415,19632,8507.08
416,19640,8527.57
417,19640,8548.07
418,19644,8568.57
419,19644,8589.07
420,19644,8609.57
421,19648,8630.07
422,19652,8650.57
423,19656,8671.07
424,19664,8691.57
425,19672,8712.07
426,19676,8732.56
427,19676,8753.06
428,19672,8773.56
429,19672,8794.06
430,19672,8814.56
431,19672,8835.06
432,19676,8855.56
433,19684,8876.06
434,19692,8896.56
435,19696,8917.06
436,19704,8937.55
437,19708,8958.05
438,19712,8978.55
439,19712,8999.05
440,19716,9019.55
441,19720,9040.05
442,19724,9060.55
443,19728,9081.05
444,19728,9101.55
445,19728,9122.05
446,19732,9142.54
447,19736,9163.04
448,19736,9183.54
449,19740,9204.04
450,19744,9224.54
451,19744,9245.04
452,19748,9265.54
453,19748,9286.04
454,19756,9306.54
455,19760,9327.03
456,19760,9347.53
457,19764,9368.03
458,19768,9388.53
459,19772,9409.03
460,19772,9429.53
461,19772,9450.03
462,19772,9470.53
463,19768,9491.03
464,19776,9511.53
465,19780,9532.02
466,19784,9552.52
467,19788,9573.02
468,19792,9593.52
469,19804,9614.02
470,19820,9634.52
471,19832,9655.02
472,19836,9675.52
473,19848,9696.02
474,19852,9716.52
475,19852,9737.01
476,19856,9757.51
477,19856,9778.01
478,19856,9798.51
479,19860,9819.01
480,19864,9839.51
481,19868,9860.01
482,19868,9880.51
483,19864,9901.01
484,19868,9921.51
485,19872,9942.00
486,19872,9962.50
487,19876,9983.00
488,19872,10003.50
489,19876,10024.00
490,19868,10044.50
491,19868,10065.00
492,19864,10085.50
493,19864,10106.00
494,19864,10126.50
495,19868,10146.99
496,19872,10167.49
497,19880,10187.99
498,19884,10208.49
499,19888,10228.99
500,19892,10249.49
501,19892,10269.99
502,19888,10290.49
503,19884,10310.99
504,19884,10331.48
505,19880,10351.98
506,19876,10372.48
507,19876,10392.98
508,19880,10413.48
509,19884,10433.98
510,19892,10454.48
511,19900,10474.98
512,19912,10495.48
513,19916,10515.98
514,19924,10536.47
515,19928,10556.97
516,19932,10577.47
517,19936,10597.97
518,19940,10618.47
519,19940,10638.97
520,19936,10659.47
521,19932,10679.97
522,19932,10700.47
523,19928,10720.97
524,19924,10741.46
525,19924,10761.96
526,19920,10782.46
527,19924,10802.96
528,19920,10823.46
529,19916,10843.96
530,19916,10864.46
531,19916,10884.96
532,19912,10905.46
533,19908,10925.96
534,19908,10946.45
535,19904,10966.95
536,19904,10987.45
537,19904,11007.95
538,19904,11028.45
539,19908,11048.95
540,19912,11069.45
541,19912,11089.95
542,19916,11110.45
543,19920,11130.95
544,19924,11151.44
545,19924,11171.94
546,19924,11192.44
547,19928,11212.94
548,19928,11233.44
549,19924,11253.94
550,19924,11274.44
551,19920,11294.94
552,19920,11315.44
553,19920,11335.93
554,19924,11356.43
555,19928,11376.93
556,19924,11397.43
557,19932,11417.93
558,19936,11438.43
559,19936,11458.93
560,19944,11479.43
561,19940,11499.93
562,19940,11520.43
563,19936,11540.92
564,19932,11561.42
565,19932,11581.92
566,19932,11602.42
567,19932,11622.92
568,19936,11643.42
569,19936,11663.92
570,19932,11684.42
571,19928,11704.92
572,19928,11725.42
573,19928,11745.91
574,19932,11766.41
575,19936,11786.91
576,19932,11807.41
577,19936,11827.91
578,19936,11848.41
579,19928,11868.91
580,19920,11889.41
581,19912,11909.91
582,19912,11930.41
583,19912,11950.90
584,19912,11971.40
585,19916,11991.90
586,19924,12012.40
587,19924,12032.90
588,19924,12053.40
589,19928,12073.90
590,19932,12094.40
591,19932,12114.90
592,19928,12135.39
593,19936,12155.89
594,19936,12176.39
595,19936,12196.89
596,19944,12217.39
597,19944,12237.89
598,19944,12258.39
599,19948,12278.89
600,19948,12299.39
601,19944,12319.89
602,19948,12340.38
603,19944,12360.88
604,19948,12381.38
605,19948,12401.88
606,19956,12422.38
607,19956,12442.88
608,19960,12463.38
609,19964,12483.88
610,19964,12504.38
611,19956,12524.88
612,19956,12545.37
613,19960,12565.87
614,19968,12586.37
615,19968,12606.87
616,19972,12627.37
617,19976,12647.87
618,19976,12668.37
619,19980,12688.87
620,19984,12709.37
621,19984,12729.87
622,19984,12750.36
623,19988,12770.86
624,19984,12791.36
625,19984,12811.86
626,19980,12832.36
627,19980,12852.86
628,19976,12873.36
629,19980,12893.86
630,19980,12914.36
631,19980,12934.86
632,19976,12955.35
633,19972,12975.85
634,19968,12996.35
635,19960,13016.85
636,19948,13037.35
637,19940,13057.85
638,19932,13078.35
639,19920,13098.85
640,19904,13119.35
641,19888,13139.84
642,19872,13160.34
643,19860,13180.84
644,19852,13201.34
645,19848,13221.84
646,19844,13242.34
647,19856,13262.84
648,19864,13283.34
649,19876,13303.84
650,19884,13324.34
651,19888,13344.83
652,19888,13365.33
653,19892,13385.83
654,19892,13406.33
655,19896,13426.83
656,19900,13447.33
657,19908,13467.83
658,19920,13488.33
659,19932,13508.83
660,19940,13529.33
661,19940,13549.82
662,19940,13570.32
663,19928,13590.82
664,19900,13611.32
665,19888,13631.82
666,19868,13652.32
667,19848,13672.82
668,19824,13693.32
669,19800,13713.82
670,19784,13734.32
671,19768,13754.81
672,19752,13775.31
673,19724,13795.81
674,19692,13816.31
675,19664,13836.81
676,19640,13857.31
677,19620,13877.81
678,19592,13898.31
679,19568,13918.81
680,19544,13939.31
681,19536,13959.80
682,19520,13980.30
683,19504,14000.80
684,19496,14021.30
685,19488,14041.80
686,19484,14062.30
687,19480,14082.80
688,19480,14103.30
689,19476,14123.80
690,19476,14144.29
691,19472,14164.79
692,19476,14185.29
693,19476,14205.79
694,19484,14226.29
695,19480,14246.79
696,19480,14267.29
697,19480,14287.79
698,19480,14308.29
699,19480,14328.79
700,19476,14349.28
701,19472,14369.78
702,19472,14390.28
703,19468,14410.78
704,19456,14431.28
705,19444,14451.78
706,19436,14472.28
707,19428,14492.78
708,19424,14513.28
709,19420,14533.78
710,19420,14554.27
711,19420,14574.77
712,19424,14595.27
713,19428,14615.77
714,19424,14636.27
715,19428,14656.77
716,19436,14677.27
717,19436,14697.77
718,19436,14718.27
719,19432,14738.77
720,19436,14759.26
721,19440,14779.76
722,19448,14800.26
723,19456,14820.76
724,19460,14841.26
725,19464,14861.76
726,19464,14882.26
727,19464,14902.76
728,19468,14923.26
729,19468,14943.75
730,19472,14964.25
731,19476,14984.75
732,19484,15005.25
733,19492,15025.75
734,19496,15046.25
735,19500,15066.75
736,19504,15087.25
737,19504,15107.75
738,19500,15128.25
739,19496,15148.74
740,19488,15169.24
741,19492,15189.74
742,19488,15210.24
743,19488,15230.74
744,19492,15251.24
745,19492,15271.74
746,19496,15292.24
747,19504,15312.74
748,19508,15333.24
749,19516,15353.73
750,19524,15374.23
751,19520,15394.73
752,19516,15415.23
753,19512,15435.73
754,19508,15456.23
755,19504,15476.73
756,19500,15497.23
757,19496,15517.73
758,19496,15538.23
759,19492,15558.72
760,19488,15579.22
761,19488,15599.72
762,19488,15620.22
763,19484,15640.72
764,19484,15661.22
765,19488,15681.72
766,19492,15702.22
767,19488,15722.72
768,19480,15743.22
769,19464,15763.71
770,19448,15784.21
771,19432,15804.71
772,19424,15825.21
773,19420,15845.71
774,19416,15866.21
775,19416,15886.71
776,19408,15907.21
777,19408,15927.71
778,19412,15948.20
779,19420,15968.70
780,19420,15989.20
781,19424,16009.70
782,19420,16030.20
783,19420,16050.70
784,19412,16071.20
785,19408,16091.70
786,19412,16112.20
787,19408,16132.70
788,19400,16153.19
789,19392,16173.69
790,19388,16194.19
791,19388,16214.69
792,19384,16235.19
793,19384,16255.69
794,19380,16276.19
795,19376,16296.69
796,19380,16317.19
797,19376,16337.69
798,19376,16358.18
799,19368,16378.68
800,19356,16399.18
801,19340,16419.68
802,19328,16440.18
803,19320,16460.68
804,19312,16481.18
805,19304,16501.68
806,19300,16522.18
807,19300,16542.68
808,19296,16563.17
809,19296,16583.67
810,19296,16604.17
811,19292,16624.67
812,19292,16645.17
813,19292,16665.67
814,19288,16686.17
815,19280,16706.67
816,19276,16727.17
817,19280,16747.67
818,19284,16768.16
819,19284,16788.66
820,19288,16809.16
821,19284,16829.66
822,19284,16850.16
823,19284,16870.66
824,19280,16891.16
825,19284,16911.66
826,19284,16932.16
827,19280,16952.65
828,19276,16973.15
829,19276,16993.65
830,19272,17014.15
831,19268,17034.65
832,19264,17055.15
833,19260,17075.65
834,19264,17096.15
835,19264,17116.65
836,19268,17137.15
837,19268,17157.64
838,19260,17178.14
839,19256,17198.64
840,19248,17219.14
841,19236,17239.64
842,19228,17260.14
843,19220,17280.64
844,19216,17301.14
845,19212,17321.64
846,19208,17342.14
847,19208,17362.63
848,19208,17383.13
849,19208,17403.63
850,19208,17424.13
851,19212,17444.63
852,19208,17465.13
853,19208,17485.63
854,19200,17506.13
855,19200,17526.63
856,19196,17547.13
857,19188,17567.62
858,19180,17588.12
859,19172,17608.62
860,19164,17629.12
861,19160,17649.62
862,19160,17670.12
863,19164,17690.62
864,19168,17711.12
865,19172,17731.62
866,19172,17752.11
867,19176,17772.61
868,19180,17793.11
869,19184,17813.61
870,19180,17834.11
871,19180,17854.61
872,19176,17875.11
873,19176,17895.61
874,19172,17916.11
875,19172,17936.61
876,19176,17957.10
877,19184,17977.60
878,19192,17998.10
879,19196,18018.60
880,19196,18039.10
881,19200,18059.60
882,19208,18080.10
883,19216,18100.60
884,19224,18121.10
885,19228,18141.60
886,19228,18162.09
887,19224,18182.59
888,19216,18203.09
889,19204,18223.59
890,19196,18244.09
891,19192,18264.59
892,19192,18285.09
893,19192,18305.59
894,19192,18326.09
895,19196,18346.59
896,19204,18367.08
897,19216,18387.58
898,19224,18408.08
899,19236,18428.58
900,19240,18449.08
901,19244,18469.58
902,19244,18490.08
903,19244,18510.58
904,19244,18531.08
905,19244,18551.58
906,19248,18572.07
907,19248,18592.57
908,19244,18613.07
909,19248,18633.57
910,19252,18654.07
911,19256,18674.57
912,19256,18695.07
913,19264,18715.57
914,19268,18736.07
915,19276,18756.56
916,19280,18777.06
917,19276,18797.56
918,19268,18818.06
919,19264,18838.56
920,19260,18859.06
921,19260,18879.56
922,19268,18900.06
923,19272,18920.56
924,19280,18941.06
925,19288,18961.55
926,19296,18982.05
927,19308,19002.55
928,19312,19023.05
929,19316,19043.55
930,19316,19064.05
931,19320,19084.55
932,19320,19105.05
933,19320,19125.55
934,19324,19146.05
935,19332,19166.54
936,19340,19187.04
937,19348,19207.54
938,19356,19228.04
939,19356,19248.54
940,19360,19269.04
941,19368,19289.54
942,19376,19310.04
943,19384,19330.54
944,19384,19351.04
945,19376,19371.53
946,19372,19392.03
947,19360,19412.53
948,19352,19433.03
949,19344,19453.53
950,19340,19474.03
951,19340,19494.53
952,19336,19515.03
953,19336,19535.53
954,19336,19556.03
955,19336,19576.52
956,19336,19597.02
957,19336,19617.52
958,19336,19638.02
959,19332,19658.52
960,19332,19679.02
961,19328,19699.52
962,19328,19720.02
963,19332,19740.52
964,19328,19761.01
965,19328,19781.51
966,19328,19802.01
967,19324,19822.51
968,19328,19843.01
969,19332,19863.51
970,19328,19884.01
971,19332,19904.51
972,19332,19925.01
973,19324,19945.51
974,19316,19966.00
975,19308,19986.50
976,19300,20007.00
977,19296,20027.50
978,19296,20048.00
979,19292,20068.50
980,19288,20089.00
981,19292,20109.50
982,19288,20130.00
983,19296,20150.50
984,19292,20170.99
985,19300,20191.49
986,19304,20211.99
987,19304,20232.49
988,19304,20252.99
989,19304,20273.49
990,19304,20293.99
991,19308,20314.49
992,19308,20334.99
993,19312,20355.49
994,19320,20375.98
995,19320,20396.48
996,19320,20416.98
997,19324,20437.48
998,19316,20457.98
999,19308,20478.48
1000,19300,20498.98
1001,19280,20519.48
1002,19264,20539.98
1003,19248,20560.47
1004,19236,20580.97
1005,19228,20601.47
1006,19224,20621.97
1007,19220,20642.47
1008,19220,20662.97
1009,19212,20683.47
1010,19208,20703.97
1011,19208,20724.47
1012,19208,20744.97
1013,19208,20765.46
1014,19208,20785.96
1015,19208,20806.46
1016,19208,20826.96
1017,19212,20847.46
1018,19216,20867.96
1019,19224,20888.46
1020,19236,20908.96
1021,19244,20929.46
1022,19252,20949.96
1023,19260,20970.45
1024,19268,20990.95
1025,19272,21011.45
1026,19280,21031.95
1027,19284,21052.45
1028,19288,21072.95
1029,19284,21093.45
1030,19268,21113.95
1031,19256,21134.45
1032,19244,21154.95
1033,19232,21175.44
1034,19228,21195.94
1035,19228,21216.44
1036,19232,21236.94
1037,19232,21257.44
1038,19232,21277.94
1039,19240,21298.44
1040,19240,21318.94
1041,19244,21339.44
1042,19248,21359.94
1043,19248,21380.43
1044,19248,21400.93
1045,19244,21421.43
1046,19236,21441.93
1047,19232,21462.43
1048,19232,21482.93
1049,19232,21503.43
1050,19232,21523.93
1051,19228,21544.43
1052,19232,21564.92
1053,19228,21585.42
1054,19232,21605.92
1055,19232,21626.42
1056,19228,21646.92
1057,19224,21667.42
1058,19216,21687.92
1059,19204,21708.42
1060,19192,21728.92
1061,19176,21749.42
1062,19172,21769.91
1063,19172,21790.41
1064,19168,21810.91
1065,19168,21831.41
1066,19164,21851.91
1067,19160,21872.41
1068,19152,21892.91
1069,19156,21913.41
1070,19156,21933.91
1071,19156,21954.41
1072,19156,21974.90
1073,19152,21995.40
1074,19156,22015.90
1075,19156,22036.40
1076,19152,22056.90
1077,19156,22077.40
1078,19160,22097.90
1079,19168,22118.40
1080,19172,22138.90
1081,19176,22159.40
1082,19184,22179.89
1083,19192,22200.39
1084,19200,22220.89
1085,19204,22241.39
1086,19212,22261.89
1087,19208,22282.39
1088,19200,22302.89
1089,19192,22323.39
1090,19184,22343.89
1091,19176,22364.38
1092,19168,22384.88
1093,19164,22405.38
1094,19160,22425.88
1095,19164,22446.38
1096,19164,22466.88
1097,19168,22487.38
1098,19176,22507.88
1099,19176,22528.38
1100,19184,22548.88
1101,19192,22569.37
1102,19200,22589.87
1103,19204,22610.37
1104,19200,22630.87
1105,19200,22651.37
1106,19200,22671.87
1107,19196,22692.37
1108,19200,22712.87
1109,19200,22733.37
1110,19200,22753.87
1111,19204,22774.36
1112,19208,22794.86
1113,19208,22815.36
1114,19212,22835.86
1115,19212,22856.36
1116,19212,22876.86
1117,19212,22897.36
1118,19208,22917.86
1119,19200,22938.36
1120,19196,22958.86
1121,19184,22979.35
1122,19184,22999.85
1123,19184,23020.35
1124,19192,23040.85
1125,19200,23061.35
1126,19208,23081.85
1127,19216,23102.35
1128,19224,23122.85
1129,19236,23143.35
1130,19244,23163.85
1131,19260,23184.34
1132,19272,23204.84
1133,19276,23225.34
1134,19280,23245.84
1135,19276,23266.34
1136,19268,23286.84
1137,19272,23307.34
1138,19280,23327.84
1139,19292,23348.34
1140,19300,23368.83
1141,19304,23389.33
1142,19308,23409.83
1143,19308,23430.33
1144,19308,23450.83
1145,19312,23471.33
1146,19308,23491.83
1147,19304,23512.33
1148,19292,23532.83
1149,19272,23553.33
1150,19252,23573.82
1151,19236,23594.32
1152,19236,23614.82
1153,19236,23635.32
1154,19236,23655.82
1155,19236,23676.32
1156,19236,23696.82
1157,19240,23717.32
1158,19240,23737.82
1159,19240,23758.32
1160,19244,23778.81
1161,19240,23799.31
1162,19240,23819.81
1163,19236,23840.31
1164,19232,23860.81
1165,19232,23881.31
1166,19240,23901.81
1167,19244,23922.31
1168,19244,23942.81
1169,19252,23963.31
1170,19260,23983.80
1171,19264,24004.30
1172,19264,24024.80
1173,19268,24045.30
1174,19268,24065.80
1175,19272,24086.30
1176,19268,24106.80
1177,19248,24127.30
1178,19236,24147.80
1179,19220,24168.30
1180,19208,24188.79
1181,19200,24209.29
1182,19200,24229.79
1183,19192,24250.29
1184,19196,24270.79
1185,19192,24291.29
1186,19192,24311.79
1187,19196,24332.29
1188,19200,24352.79
1189,19200,24373.28
1190,19200,24393.78
1191,19204,24414.28
1192,19200,24434.78
1193,19196,24455.28
1194,19196,24475.78
1195,19192,24496.28
1196,19196,24516.78
1197,19196,24537.28
1198,19196,24557.78
1199,19200,24578.27
1200,19208,24598.77
1201,19212,24619.27
1202,19216,24639.77
1203,19216,24660.27
1204,19220,24680.77
1205,19220,24701.27
1206,19212,24721.77
1207,19196,24742.27
1208,19184,24762.77
1209,19172,24783.26
1210,19164,24803.76
1211,19168,24824.26
1212,19168,24844.76
1213,19172,24865.26
1214,19172,24885.76
1215,19172,24906.26
1216,19180,24926.76
1217,19184,24947.26
1218,19184,24967.76
1219,19188,24988.25
1220,19192,25008.75
1221,19192,25029.25
1222,19188,25049.75
1223,19184,25070.25
1224,19184,25090.75
1225,19184,25111.25
1226,19184,25131.75
1227,19184,25152.25
1228,19184,25172.74
1229,19184,25193.24
1230,19188,25213.74
1231,19196,25234.24
1232,19200,25254.74
1233,19204,25275.24
1234,19200,25295.74
1235,19192,25316.24
1236,19176,25336.74
1237,19160,25357.24
1238,19148,25377.73
1239,19144,25398.23
1240,19140,25418.73
1241,19140,25439.23
1242,19140,25459.73
1243,19148,25480.23
1244,19148,25500.73
1245,19156,25521.23
1246,19156,25541.73
1247,19164,25562.23
1248,19168,25582.72
1249,19172,25603.22
1250,19176,25623.72
1251,19180,25644.22
1252,19184,25664.72
1253,19188,25685.22
1254,19188,25705.72
1255,19192,25726.22
1256,19200,25746.72
1257,19208,25767.22
1258,19216,25787.71
1259,19224,25808.21
1260,19232,25828.71
1261,19236,25849.21
1262,19236,25869.71
1263,19236,25890.21
1264,19220,25910.71
1265,19208,25931.21
1266,19196,25951.71
1267,19184,25972.21
1268,19176,25992.70
1269,19176,26013.20
1270,19180,26033.70
1271,19180,26054.20
1272,19188,26074.70
1273,19188,26095.20
1274,19196,26115.70
1275,19200,26136.20
1276,19204,26156.70
1277,19208,26177.19
1278,19208,26197.69
1279,19216,26218.19
1280,19216,26238.69
1281,19216,26259.19
1282,19220,26279.69
1283,19224,26300.19
1284,19228,26320.69
1285,19232,26341.19
1286,19240,26361.69
1287,19244,26382.18
1288,19248,26402.68
1289,19256,26423.18
1290,19260,26443.68
1291,19256,26464.18
1292,19244,26484.68
1293,19228,26505.18
1294,19216,26525.68
1295,19204,26546.18
1296,19200,26566.68
1297,19200,26587.17
1298,19204,26607.67
1299,19204,26628.17
1300,19212,26648.67
1301,19216,26669.17
1302,19220,26689.67
1303,19224,26710.17
1304,19228,26730.67
1305,19228,26751.17
1306,19228,26771.67
1307,19224,26792.16
1308,19224,26812.66
1309,19220,26833.16
1310,19220,26853.66
1311,19224,26874.16
1312,19228,26894.66
1313,19228,26915.16
1314,19232,26935.66
1315,19240,26956.16
1316,19252,26976.66
1317,19252,26997.15
1318,19256,27017.65
1319,19252,27038.15
1320,19236,27058.65
1321,19220,27079.15
1322,19208,27099.65
1323,19204,27120.15
1324,19208,27140.65
1325,19208,27161.15
1326,19212,27181.64
1327,19216,27202.14
1328,19220,27222.64
1329,19228,27243.14
1330,19232,27263.64
1331,19244,27284.14
1332,19244,27304.64
1333,19248,27325.14
1334,19244,27345.64
1335,19232,27366.14
1336,19228,27386.63
1337,19220,27407.13
1338,19212,27427.63
1339,19208,27448.13
1340,19204,27468.63
1341,19204,27489.13
1342,19196,27509.63
1343,19192,27530.13
1344,19184,27550.63
1345,19172,27571.13
1346,19156,27591.62
1347,19132,27612.12
1348,19108,27632.62
1349,19088,27653.12
1350,19080,27673.62
1351,19076,27694.12
1352,19076,27714.62
1353,19076,27735.12
1354,19084,27755.62
1355,19088,27776.12
1356,19096,27796.61
1357,19100,27817.11
1358,19104,27837.61
1359,19108,27858.11
1360,19112,27878.61
1361,19108,27899.11
1362,19100,27919.61
1363,19096,27940.11
1364,19088,27960.61
1365,19088,27981.10
1366,19088,28001.60
1367,19084,28022.10
1368,19084,28042.60
1369,19084,28063.10
1370,19084,28083.60
1371,19080,28104.10
1372,19076,28124.60
1373,19068,28145.10
1374,19052,28165.60
1375,19040,28186.09
1376,19028,28206.59
1377,19024,28227.09
1378,19020,28247.59
1379,19024,28268.09
1380,19028,28288.59
1381,19036,28309.09
1382,19044,28329.59
1383,19040,28350.09
1384,19044,28370.59
1385,19048,28391.08
1386,19048,28411.58
1387,19040,28432.08
1388,19036,28452.58
1389,19032,28473.08
1390,19032,28493.58
1391,19032,28514.08
1392,19032,28534.58
1393,19040,28555.08
1394,19040,28575.58
1395,19040,28596.07
1396,19044,28616.57
1397,19044,28637.07
1398,19040,28657.57
1399,19028,28678.07
1400,19020,28698.57
1401,19008,28719.07
1402,19000,28739.57
1403,18992,28760.07
1404,18996,28780.57
1405,19000,28801.06
1406,19004,28821.56
1407,19008,28842.06
1408,19020,28862.56
1409,19024,28883.06
1410,19028,28903.56
1411,19036,28924.06
1412,19036,28944.56
1413,19032,28965.06
1414,19036,28985.55
1415,19032,29006.05
1416,19032,29026.55
1417,19032,29047.05
1418,19032,29067.55
1419,19040,29088.05
1420,19040,29108.55
1421,19044,29129.05
1422,19048,29149.55
1423,19048,29170.05
1424,19040,29190.54
1425,19028,29211.04
1426,19020,29231.54
1427,19008,29252.04
1428,19000,29272.54
1429,19000,29293.04
1430,18996,29313.54
1431,19000,29334.04
1432,19008,29354.54
1433,19012,29375.04
1434,19016,29395.53
1435,19020,29416.03
1436,19020,29436.53
1437,19020,29457.03
1438,19020,29477.53
1439,19020,29498.03
1440,19024,29518.53
1441,19024,29539.03
1442,19028,29559.53
1443,19032,29580.03
1444,19036,29600.52
1445,19040,29621.02
1446,19044,29641.52
1447,19048,29662.02
1448,19056,29682.52
1449,19052,29703.02
1450,19048,29723.52
1451,19044,29744.02
1452,19044,29764.52
1453,19040,29785.02
1454,19040,29805.51
1455,19040,29826.01
1456,19040,29846.51
1457,19048,29867.01
1458,19052,29887.51
1459,19060,29908.01
1460,19064,29928.51
1461,19068,29949.01
1462,19076,29969.51
1463,19080,29990.00
1464,19080,30010.50
1465,19080,30031.00
1466,19080,30051.50
1467,19084,30072.00
1468,19084,30092.50
1469,19080,30113.00
1470,19084,30133.50
1471,19088,30154.00
1472,19092,30174.50
1473,19092,30194.99
1474,19096,30215.49
1475,19100,30235.99
1476,19096,30256.49
1477,19088,30276.99
1478,19088,30297.49
1479,19084,30317.99
1480,19088,30338.49
1481,19088,30358.99
1482,19092,30379.49
1483,19100,30399.98
1484,19100,30420.48
1485,19104,30440.98
1486,19112,30461.48
1487,19116,30481.98
1488,19120,30502.48
1489,19124,30522.98
1490,19124,30543.48
1491,19128,30563.98
1492,19132,30584.48
1493,19136,30604.97
1494,19140,30625.47
1495,19144,30645.97
1496,19148,30666.47
1497,19152,30686.97
1498,19156,30707.47
1499,19156,30727.97
1500,19164,30748.47
1501,19168,30768.97
1502,19172,30789.46
1503,19168,30809.96
1504,19168,30830.46
1505,19168,30850.96
1506,19164,30871.46
1507,19168,30891.96
1508,19168,30912.46
1509,19168,30932.96
1510,19168,30953.46
1511,19172,30973.96
1512,19176,30994.45
1513,19180,31014.95
1514,19184,31035.45
1515,19188,31055.95
1516,19188,31076.45
1517,19192,31096.95
1518,19196,31117.45
1519,19192,31137.95
1520,19196,31158.45
1521,19200,31178.95
1522,19204,31199.44
1523,19208,31219.94
1524,19216,31240.44
1525,19220,31260.94
1526,19224,31281.44
1527,19232,31301.94
1528,19236,31322.44
1529,19240,31342.94
1530,19240,31363.44
1531,19236,31383.94
1532,19236,31404.43
1533,19240,31424.93
1534,19240,31445.43
1535,19252,31465.93
1536,19260,31486.43
1537,19268,31506.93
1538,19276,31527.43
1539,19280,31547.93
1540,19284,31568.43
1541,19292,31588.93
1542,19296,31609.42
1543,19304,31629.92
1544,19308,31650.42
1545,19316,31670.92
1546,19324,31691.42
1547,19328,31711.92
1548,19336,31732.42
1549,19340,31752.92
1550,19348,31773.42
1551,19352,31793.91
1552,19356,31814.41
1553,19360,31834.91
1554,19360,31855.41
1555,19364,31875.91
1556,19372,31896.41
1557,19372,31916.91
1558,19372,31937.41
1559,19368,31957.91
1560,19364,31978.41
1561,19360,31998.90
1562,19356,32019.40
1563,19356,32039.90
1564,19360,32060.40
1565,19360,32080.90
1566,19360,32101.40
1567,19360,32121.90
1568,19360,32142.40
1569,19364,32162.90
1570,19360,32183.40
1571,19360,32203.89
1572,19360,32224.39
1573,19356,32244.89
1574,19356,32265.39
1575,19360,32285.89
1576,19360,32306.39
1577,19364,32326.89
1578,19368,32347.39
1579,19368,32367.89
1580,19368,32388.39
1581,19372,32408.88
1582,19376,32429.38
1583,19376,32449.88
1584,19376,32470.38
1585,19372,32490.88
1586,19372,32511.38
1587,19372,32531.88
1588,19368,32552.38
1589,19364,32572.88
1590,19364,32593.38
1591,19360,32613.87
1592,19360,32634.37
1593,19356,32654.87
1594,19352,32675.37
1595,19348,32695.87
1596,19352,32716.37
1597,19344,32736.87
1598,19344,32757.37
1599,19336,32777.87
1600,19332,32798.36
1601,19324,32818.86
1602,19324,32839.36
1603,19320,32859.86
1604,19316,32880.36
1605,19316,32900.86
1606,19316,32921.36
1607,19316,32941.86
1608,19316,32962.36
1609,19320,32982.86
1610,19320,33003.35
1611,19320,33023.85
1612,19316,33044.35
1613,19316,33064.85
1614,19316,33085.35
1615,19312,33105.85
1616,19312,33126.35
1617,19308,33146.85
1618,19312,33167.35
1619,19312,33187.85
1620,19320,33208.34
1621,19336,33228.84
1622,19356,33249.34
1623,19360,33269.84
1624,19356,33290.34
1625,19348,33310.84
1626,19344,33331.34
1627,19340,33351.84
1628,19336,33372.34
1629,19336,33392.84
1630,19336,33413.33
1631,19328,33433.83
1632,19324,33454.33
1633,19316,33474.83
1634,19300,33495.33
1635,19284,33515.83
1636,19264,33536.33
1637,19248,33556.83
1638,19236,33577.33
1639,19228,33597.82
1640,19220,33618.32
1641,19204,33638.82
1642,19196,33659.32
1643,19180,33679.82
1644,19168,33700.32
1645,19156,33720.82
1646,19148,33741.32
1647,19136,33761.82
1648,19128,33782.32
1649,19116,33802.81
1650,19108,33823.31
1651,19096,33843.81
1652,19088,33864.31
1653,19080,33884.81
1654,19072,33905.31
1655,19072,33925.81
1656,19064,33946.31
1657,19052,33966.81
1658,19048,33987.31
1659,19044,34007.80
1660,19048,34028.30
1661,19044,34048.80
1662,19040,34069.30
1663,19040,34089.80
1664,19040,34110.30
1665,19036,34130.80
1666,19028,34151.30
1667,19020,34171.80
1668,19012,34192.30
1669,19000,34212.79
1670,18980,34233.29
1671,18964,34253.79
1672,18948,34274.29
1673,18940,34294.79
1674,18948,34315.29
1675,18952,34335.79
1676,18960,34356.29
1677,18960,34376.79
1678,18968,34397.29
1679,18968,34417.78
1680,18968,34438.28
1681,18964,34458.78
1682,18964,34479.28
1683,18964,34499.78
1684,18972,34520.28
1685,18968,34540.78
1686,18968,34561.28
1687,18964,34581.78
1688,18960,34602.27
1689,18964,34622.77
1690,18968,34643.27
1691,18976,34663.77
1692,18984,34684.27
1693,18988,34704.77
1694,18996,34725.27
1695,19004,34745.77
1696,19008,34766.27
1697,19016,34786.77
1698,19016,34807.26
1699,19020,34827.76
1700,19024,34848.26
1701,19032,34868.76
1702,19032,34889.26
1703,19036,34909.76
1704,19040,34930.26
1705,19044,34950.76
1706,19052,34971.26
1707,19056,34991.76
1708,19064,35012.25
1709,19068,35032.75
1710,19076,35053.25
1711,19080,35073.75
1712,19080,35094.25
1713,19084,35114.75
1714,19084,35135.25
1715,19084,35155.75
1716,19080,35176.25
1717,19080,35196.75
1718,19084,35217.24
1719,19088,35237.74
1720,19092,35258.24
1721,19096,35278.74
1722,19104,35299.24
1723,19104,35319.74
1724,19108,35340.24
1725,19112,35360.74
1726,19112,35381.24
1727,19124,35401.74
1728,19124,35422.23
1729,19128,35442.73
1730,19132,35463.23
1731,19140,35483.73
1732,19144,35504.23
1733,19140,35524.73
1734,19144,35545.23
1735,19148,35565.73
1736,19152,35586.23
1737,19156,35606.72
1738,19164,35627.22
1739,19172,35647.72
1740,19180,35668.22
1741,19184,35688.72
1742,19188,35709.22
1743,19196,35729.72
1744,19200,35750.22
1745,19204,35770.72
1746,19208,35791.22
1747,19208,35811.71
1748,19212,35832.21
1749,19216,35852.71
1750,19216,35873.21
1751,19212,35893.71
1752,19212,35914.21
1753,19212,35934.71
1754,19208,35955.21
1755,19208,35975.71
1756,19204,35996.21
1757,19208,36016.70
1758,19204,36037.20
1759,19212,36057.70
1760,19212,36078.20
1761,19212,36098.70
1762,19216,36119.20
1763,19212,36139.70
1764,19220,36160.20
1765,19216,36180.70
1766,19216,36201.20
1767,19216,36221.69
1768,19220,36242.19
1769,19220,36262.69
1770,19220,36283.19
1771,19224,36303.69
1772,19224,36324.19
1773,19228,36344.69
1774,19224,36365.19
1775,19228,36385.69
1776,19228,36406.18
1777,19228,36426.68
1778,19232,36447.18
1779,19232,36467.68
1780,19236,36488.18
1781,19224,36508.68
1782,19216,36529.18
1783,19216,36549.68
1784,19208,36570.18
1785,19204,36590.68
1786,19204,36611.17
1787,19200,36631.67
1788,19192,36652.17
1789,19188,36672.67
1790,19184,36693.17
1791,19180,36713.67
1792,19176,36734.17
1793,19168,36754.67
1794,19168,36775.17
1795,19160,36795.67
1796,19152,36816.16
1797,19156,36836.66
1798,19160,36857.16
1799,19164,36877.66
1800,19168,36898.16
1801,19176,36918.66
1802,19180,36939.16
1803,19180,36959.66
1804,19184,36980.16
1805,19188,37000.66
1806,19188,37021.15
1807,19188,37041.65
1808,19196,37062.15
1809,19192,37082.65
1810,19192,37103.15
1811,19180,37123.65
1812,19176,37144.15
1813,19172,37164.65
1814,19168,37185.15
1815,19164,37205.65
1816,19168,37226.14
1817,19168,37246.64
1818,19168,37267.14
1819,19164,37287.64
1820,19164,37308.14
1821,19164,37328.64
1822,19164,37349.14
1823,19160,37369.64
1824,19156,37390.14
1825,19152,37410.63
1826,19148,37431.13
1827,19152,37451.63
1828,19144,37472.13
1829,19144,37492.63
1830,19144,37513.13
1831,19144,37533.63
1832,19144,37554.13
1833,19144,37574.63
1834,19140,37595.13
1835,19132,37615.62
1836,19132,37636.12
1837,19128,37656.62
1838,19128,37677.12
1839,19128,37697.62
1840,19120,37718.12
1841,19112,37738.62
1842,19104,37759.12
1843,19096,37779.62
1844,19084,37800.12
1845,19076,37820.61
1846,19076,37841.11
1847,19072,37861.61
1848,19072,37882.11
1849,19072,37902.61
1850,19072,37923.11
1851,19076,37943.61
1852,19072,37964.11
1853,19072,37984.61
1854,19072,38005.11
1855,19072,38025.60
1856,19072,38046.10
1857,19068,38066.60
1858,19072,38087.10
1859,19068,38107.60
1860,19068,38128.10
1861,19068,38148.60
1862,19072,38169.10
1863,19068,38189.60
1864,19068,38210.09
1865,19068,38230.59
1866,19068,38251.09
1867,19068,38271.59
1868,19068,38292.09
1869,19068,38312.59
1870,19068,38333.09
1871,19068,38353.59
1872,19068,38374.09
1873,19068,38394.59
1874,19056,38415.08
1875,19044,38435.58
1876,19032,38456.08
1877,19020,38476.58
1878,19012,38497.08
1879,19004,38517.58
1880,19000,38538.08
1881,18996,38558.58
1882,18992,38579.08
1883,18996,38599.58
1884,18988,38620.07
1885,18988,38640.57
1886,18988,38661.07
1887,18984,38681.57
1888,18980,38702.07
1889,18980,38722.57
1890,18976,38743.07
1891,18976,38763.57
1892,18972,38784.07
1893,18976,38804.57
1894,18976,38825.06
1895,18976,38845.56
1896,18980,38866.06
1897,18980,38886.56
1898,18980,38907.06
1899,18988,38927.56
1900,18992,38948.06
1901,18988,38968.56
1902,18992,38989.06
1903,18996,39009.56
1904,18996,39030.05
1905,18996,39050.55
1906,18996,39071.05
1907,18992,39091.55
1908,19000,39112.05
1909,19000,39132.55
1910,19004,39153.05
1911,18996,39173.55
1912,18988,39194.05
1913,18976,39214.54
1914,18968,39235.04
1915,18964,39255.54
1916,18960,39276.04
1917,18956,39296.54
1918,18952,39317.04
1919,18952,39337.54
1920,18956,39358.04
1921,18960,39378.54
1922,18964,39399.04
1923,18964,39419.53
1924,18976,39440.03
1925,18992,39460.53
1926,19028,39481.03
1927,19060,39501.53
1928,19116,39522.03
1929,19172,39542.53
1930,19216,39563.03
1931,19280,39583.53
1932,19348,39604.03
1933,19396,39624.52
1934,19444,39645.02
1935,19492,39665.52
1936,19536,39686.02
1937,19592,39706.52
1938,19652,39727.02
1939,19712,39747.52
1940,19752,39768.02
1941,19780,39788.52
1942,19808,39809.02
1943,19828,39829.51
1944,19860,39850.01
1945,19884,39870.51
1946,19904,39891.01
1947,19912,39911.51
1948,19916,39932.01
1949,19904,39952.51
1950,19908,39973.01
1951,19908,39993.51
1952,19904,40014.01
1953,19908,40034.50
1954,19900,40055.00
1955,19896,40075.50
1956,19880,40096.00
1957,19852,40116.50
1958,19824,40137.00
1959,19792,40157.50
1960,19776,40178.00
1961,19768,40198.50
1962,19768,40218.99
1963,19776,40239.49
1964,19796,40259.99
1965,19816,40280.49
1966,19836,40300.99
1967,19872,40321.49
1968,19936,40341.99
1969,20000,40362.49
1970,20032,40382.99
1971,20052,40403.49
1972,20076,40423.98
1973,20080,40444.48
1974,20092,40464.98
1975,20108,40485.48
1976,20096,40505.98
1977,20084,40526.48
1978,20084,40546.98
1979,20072,40567.48
1980,20064,40587.98
1981,20048,40608.48
1982,20024,40628.97
1983,19984,40649.47
1984,19940,40669.97
1985,19912,40690.47
1986,19912,40710.97
1987,19912,40731.47
1988,19880,40751.97
1989,19848,40772.47
1990,19836,40792.97
1991,19876,40813.47
1992,19956,40833.96
1993,20040,40854.46
1994,20108,40874.96
1995,20144,40895.46
1996,20136,40915.96
1997,20092,40936.46
1998,20056,40956.96
1999,20040,40977.46
2000,20028,40997.96
2001,20020,41018.45
2002,20000,41038.95
2003,19976,41059.45
2004,19968,41079.95
2005,19976,41100.45
2006,19992,41120.95
2007,19992,41141.45
2008,19988,41161.95
2009,19992,41182.45
2010,20016,41202.95
2011,20040,41223.44
2012,20032,41243.94
2013,20036,41264.44
2014,20040,41284.94
2015,20048,41305.44
2016,20068,41325.94
2017,20092,41346.44
2018,20100,41366.94
2019,20128,41387.44
2020,20156,41407.94
2021,20148,41428.43
2022,20124,41448.93
2023,20104,41469.43
2024,20072,41489.93
2025,19948,41510.43
2026,19860,41530.93
2027,19716,41551.43
2028,19560,41571.93
2029,19388,41592.43
2030,19276,41612.93
2031,19280,41633.42
2032,19320,41653.92
2033,19352,41674.42
2034,19384,41694.92
2035,19428,41715.42
2036,19464,41735.92
2037,19480,41756.42
2038,19464,41776.92
2039,19432,41797.42
2040,19372,41817.92
2041,19308,41838.41
2042,19256,41858.91
2043,19220,41879.41
2044,19168,41899.91
2045,19108,41920.41
2046,19056,41940.91
2047,19012,41961.41
2048,18988,41981.91
2049,18972,42002.41
2050,18944,42022.90
2051,18916,42043.40
2052,18896,42063.90
2053,18844,42084.40
2054,18804,42104.90
2055,18788,42125.40
2056,18816,42145.90
2057,18964,42166.40
2058,19092,42186.90
2059,19196,42207.40
2060,19320,42227.89
2061,19464,42248.39
2062,19624,42268.89
2063,19780,42289.39
2064,19844,42309.89
2065,19844,42330.39
2066,19836,42350.89
2067,19816,42371.39
2068,19784,42391.89
2069,19760,42412.39
2070,19744,42432.88
2071,19752,42453.38
2072,19772,42473.88
2073,19760,42494.38
2074,19792,42514.88
2075,19760,42535.38
2076,19684,42555.88
2077,19596,42576.38
2078,19472,42596.88
2079,19240,42617.38
2080,18892,42637.87
2081,18616,42658.37
2082,18464,42678.87
2083,18272,42699.37
2084,17036,42719.87
2085,15636,42740.37
2086,14008,42760.87
2087,12304,42781.37
2088,10536,42801.87
2089,8492,42822.37
2090,6464,42842.86
2091,4628,42863.36
2092,3360,42883.86
2093,2512,42904.36
2094,2144,42924.86
2095,2084,42945.36
2096,2176,42965.86
2097,2380,42986.36
2098,2668,43006.86
2099,2772,43027.35
2100,2664,43047.85
2101,2492,43068.35
2102,2528,43088.85
2103,2616,43109.35
2104,2692,43129.85
2105,2740,43150.35
2106,2824,43170.85
2107,2960,43191.35
2108,3140,43211.85
2109,3408,43232.34
2110,3592,43252.84
2111,3732,43273.34
2112,4396,43293.84
2113,5580,43314.34
2114,6684,43334.84
2115,7480,43355.34
2116,7984,43375.84
2117,8528,43396.34
2118,10004,43416.84
2119,13000,43437.33
2120,16796,43457.83
2121,19252,43478.33
2122,20580,43498.83
2123,21088,43519.33
2124,21020,43539.83
2125,20892,43560.33
2126,20760,43580.83
2127,20552,43601.33
2128,20488,43621.83
2129,20552,43642.32
2130,20672,43662.82
2131,20836,43683.32
2132,21040,43703.82
2133,21252,43724.32
2134,21460,43744.82
2135,21656,43765.32
2136,21816,43785.82
2137,21940,43806.32
2138,22048,43826.81
2139,22124,43847.31
2140,22196,43867.81
2141,22272,43888.31
2142,22332,43908.81
2143,22392,43929.31
2144,22460,43949.81
2145,22564,43970.31
2146,22676,43990.81
2147,22792,44011.31
2148,22912,44031.80
2149,23056,44052.30
2150,23196,44072.80
2151,23316,44093.30
2152,23412,44113.80
2153,23484,44134.30
2154,23508,44154.80
2155,23496,44175.30
2156,23488,44195.80
2157,23492,44216.30
2158,23496,44236.79
2159,23496,44257.29
2160,23496,44277.79
2161,23496,44298.29
2162,23496,44318.79
2163,23468,44339.29
2164,23424,44359.79
2165,23388,44380.29
2166,23380,44400.79
2167,23384,44421.29
2168,23376,44441.78
2169,23356,44462.28
2170,23328,44482.78
2171,23308,44503.28
2172,23308,44523.78
2173,23332,44544.28
2174,23352,44564.78
2175,23384,44585.28
2176,23412,44605.78
2177,23412,44626.28
2178,23416,44646.77
2179,23416,44667.27
2180,23416,44687.77
2181,23416,44708.27
2182,23404,44728.77
2183,23392,44749.27
2184,23384,44769.77
2185,23376,44790.27
2186,23352,44810.77
2187,23296,44831.26
2188,23228,44851.76
2189,23152,44872.26
2190,23060,44892.76
2191,22960,44913.26
2192,22876,44933.76
2193,22804,44954.26
2194,22744,44974.76
2195,22716,44995.26
2196,22680,45015.76
2197,22640,45036.25
2198,22584,45056.75
2199,22544,45077.25
2200,22512,45097.75
2201,22468,45118.25
2202,22388,45138.75
2203,22316,45159.25
2204,22260,45179.75
2205,22208,45200.25
2206,22176,45220.75
2207,22152,45241.24
2208,22092,45261.74
2209,21964,45282.24
2210,21776,45302.74
2211,21640,45323.24
2212,21628,45343.74
2213,21528,45364.24
2214,21248,45384.74
2215,20660,45405.24
2216,20224,45425.74
2217,20060,45446.23
2218,20116,45466.73
2219,20184,45487.23
2220,20200,45507.73
2221,20236,45528.23
2222,20204,45548.73
2223,20068,45569.23
2224,19836,45589.73
2225,19260,45610.23
2226,19172,45630.73
2227,19612,45651.22
2228,20140,45671.72
2229,20680,45692.22
2230,21144,45712.72
2231,21520,45733.22
2232,21848,45753.72
2233,22156,45774.22
2234,22420,45794.72
2235,22636,45815.22
2236,22800,45835.71
2237,22916,45856.21
2238,22988,45876.71
2239,23012,45897.21
2240,23020,45917.71
2241,23020,45938.21
2242,23008,45958.71
2243,23004,45979.21
2244,22996,45999.71
2245,22976,46020.21
2246,22944,46040.70
2247,22928,46061.20
2248,22916,46081.70
2249,22900,46102.20
2250,22884,46122.70
2251,22840,46143.20
2252,22776,46163.70
2253,22688,46184.20
2254,22588,46204.70
2255,22492,46225.20
2256,22412,46245.69
2257,22360,46266.19
2258,22324,46286.69
2259,22304,46307.19
2260,22292,46327.69
2261,22284,46348.19
2262,22272,46368.69
2263,22264,46389.19
2264,22240,46409.69
2265,22224,46430.19
2266,22192,46450.68
2267,22168,46471.18
2268,22144,46491.68
2269,22128,46512.18
2270,22100,46532.68
2271,22080,46553.18
2272,22072,46573.68
2273,22068,46594.18
2274,22064,46614.68
2275,22064,46635.17
2276,22060,46655.67
2277,22060,46676.17
2278,22064,46696.67
2279,22076,46717.17
2280,22088,46737.67
2281,22112,46758.17
2282,22120,46778.67
2283,22132,46799.17
2284,22132,46819.67
2285,22128,46840.16
2286,22108,46860.66
2287,22072,46881.16
2288,22020,46901.66
2289,21960,46922.16
2290,21920,46942.66
2291,21900,46963.16
2292,21892,46983.66
2293,21896,47004.16
2294,21916,47024.66
2295,21948,47045.15
2296,21984,47065.65
2297,22024,47086.15
2298,22060,47106.65
2299,22092,47127.15
2300,22112,47147.65
2301,22128,47168.15
2302,22136,47188.65
2303,22144,47209.15
2304,22156,47229.65
2305,22164,47250.14
2306,22172,47270.64
2307,22192,47291.14
2308,22208,47311.64
2309,22228,47332.14
2310,22248,47352.64
2311,22264,47373.14
2312,22288,47393.64
2313,22308,47414.14
2314,22332,47434.64
2315,22348,47455.13
2316,22368,47475.63
2317,22384,47496.13
2318,22404,47516.63
2319,22400,47537.13
2320,22368,47557.63
2321,22312,47578.13
2322,22252,47598.63
2323,22200,47619.13
2324,22164,47639.62
2325,22148,47660.12
2326,22148,47680.62
2327,22160,47701.12
2328,22176,47721.62
2329,22200,47742.12
2330,22232,47762.62
2331,22256,47783.12
2332,22280,47803.62
2333,22296,47824.12
2334,22312,47844.61
2335,22316,47865.11
2336,22316,47885.61
2337,22316,47906.11
2338,22320,47926.61
2339,22324,47947.11
2340,22332,47967.61
2341,22340,47988.11
2342,22352,48008.61
2343,22364,48029.11
2344,22384,48049.60
2345,22392,48070.10
2346,22408,48090.60
2347,22424,48111.10
2348,22436,48131.60
2349,22456,48152.10
2350,22468,48172.60
2351,22464,48193.10
2352,22428,48213.60
2353,22368,48234.10
2354,22304,48254.59
2355,22244,48275.09
2356,22208,48295.59
2357,22188,48316.09
2358,22172,48336.59
2359,22176,48357.09
2360,22188,48377.59
2361,22212,48398.09
2362,22240,48418.59
2363,22268,48439.09
2364,22292,48459.58
2365,22308,48480.08
2366,22316,48500.58
2367,22324,48521.08
2368,22316,48541.58
2369,22320,48562.08
2370,22324,48582.58
2371,22336,48603.08
2372,22340,48623.58
2373,22356,48644.07
2374,22364,48664.57
2375,22368,48685.07
2376,22380,48705.57
2377,22388,48726.07
2378,22404,48746.57
2379,22420,48767.07
2380,22440,48787.57
2381,22432,48808.07
2382,22404,48828.57
2383,22356,48849.06
2384,22308,48869.56
2385,22268,48890.06
2386,22240,48910.56
2387,22224,48931.06
2388,22224,48951.56
2389,22228,48972.06
2390,22244,48992.56
2391,22264,49013.06
2392,22284,49033.56
2393,22308,49054.05
2394,22324,49074.55
2395,22332,49095.05
2396,22340,49115.55
2397,22344,49136.05
2398,22340,49156.55
2399,22348,49177.05
2400,22352,49197.55
2401,22356,49218.05
2402,22364,49238.55
2403,22376,49259.04
2404,22384,49279.54
2405,22400,49300.04
2406,22420,49320.54
2407,22432,49341.04
2408,22444,49361.54
2409,22452,49382.04
2410,22424,49402.54
2411,22368,49423.04
2412,22304,49443.53
2413,22240,49464.03
2414,22192,49484.53
2415,22160,49505.03
2416,22148,49525.53
2417,22148,49546.03
2418,22156,49566.53
2419,22176,49587.03
2420,22196,49607.53
2421,22224,49628.03
2422,22240,49648.52
2423,22252,49669.02
2424,22256,49689.52
2425,22256,49710.02
2426,22252,49730.52
2427,22248,49751.02
2428,22248,49771.52
2429,22252,49792.02
2430,22256,49812.52
2431,22268,49833.02
2432,22280,49853.51
2433,22300,49874.01
2434,22312,49894.51
2435,22328,49915.01
2436,22348,49935.51
2437,22340,49956.01
2438,22308,49976.51
2439,22244,49997.01
2440,22176,50017.51
2441,22112,50038.01
2442,22064,50058.50
2443,22040,50079.00
2444,22028,50099.50
2445,22036,50120.00
2446,22048,50140.50
2447,22072,50161.00
2448,22092,50181.50
2449,22116,50202.00
2450,22132,50222.50
2451,22140,50243.00
2452,22144,50263.49
2453,22144,50283.99
2454,22144,50304.49
2455,22144,50324.99
2456,22144,50345.49
2457,22152,50365.99
2458,22160,50386.49
2459,22172,50406.99
2460,22180,50427.49
2461,22196,50447.98
2462,22212,50468.48
2463,22228,50488.98
2464,22244,50509.48
2465,22228,50529.98
2466,22180,50550.48
2467,22112,50570.98
2468,22036,50591.48
2469,21972,50611.98
2470,21936,50632.48
2471,21912,50652.97
2472,21912,50673.47
2473,21920,50693.97
2474,21940,50714.47
2475,21964,50734.97
2476,21988,50755.47
2477,22012,50775.97
2478,22032,50796.47
2479,22036,50816.97
2480,22040,50837.47
2481,22044,50857.96
2482,22044,50878.46
2483,22044,50898.96
2484,22052,50919.46
2485,22060,50939.96
2486,22076,50960.46
2487,22092,50980.96
2488,22108,51001.46
2489,22132,51021.96
2490,22152,51042.46
2491,22176,51062.95
2492,22188,51083.45
2493,22192,51103.95
2494,22148,51124.45
2495,22084,51144.95
2496,22000,51165.45
2497,21932,51185.95
2498,21880,51206.45
2499,21852,51226.95
2500,21844,51247.44
2501,21848,51267.94
2502,21864,51288.44
2503,21888,51308.94
2504,21912,51329.44
2505,21932,51349.94
2506,21952,51370.44
2507,21964,51390.94
2508,21968,51411.44
2509,21972,51431.94
2510,21972,51452.43
2511,21976,51472.93
2512,21980,51493.43
2513,21988,51513.93
2514,22000,51534.43
2515,22012,51554.93
2516,22028,51575.43
2517,22048,51595.93
2518,22068,51616.43
2519,22088,51636.93
2520,22112,51657.42
2521,22132,51677.92
2522,22148,51698.42
2523,22136,51718.92
2524,22088,51739.42
2525,22008,51759.92
2526,21924,51780.42
2527,21856,51800.92
2528,21808,51821.42
2529,21788,51841.92
2530,21792,51862.41
2531,21804,51882.91
2532,21824,51903.41
2533,21852,51923.91
2534,21876,51944.41
2535,21904,51964.91
2536,21928,51985.41
2537,21940,52005.91
2538,21944,52026.41
2539,21952,52046.91
2540,21952,52067.40
2541,21956,52087.90
2542,21964,52108.40
2543,21976,52128.90
2544,21984,52149.40
2545,22004,52169.90
2546,22020,52190.40
2547,22036,52210.90
2548,22056,52231.40
2549,22076,52251.89
2550,22096,52272.39
2551,22116,52292.89
2552,22136,52313.39
2553,22152,52333.89
2554,22160,52354.39
2555,22136,52374.89
2556,22068,52395.39
2557,21980,52415.89
2558,21892,52436.39
2559,21828,52456.88
2560,21788,52477.38
2561,21776,52497.88
2562,21780,52518.38
2563,21796,52538.88
2564,21828,52559.38
2565,21856,52579.88
2566,21888,52600.38
2567,21908,52620.88
2568,21928,52641.38
2569,21936,52661.87
2570,21940,52682.37
2571,21936,52702.87
2572,21936,52723.37
2573,21940,52743.87
2574,21944,52764.37
2575,21960,52784.87
2576,21972,52805.37
2577,21992,52825.87
2578,22012,52846.37
2579,22032,52866.86
2580,22052,52887.36
2581,22072,52907.86
2582,22092,52928.36
2583,22108,52948.86
2584,22132,52969.36
2585,22148,52989.86
2586,22156,53010.36
2587,22128,53030.86
2588,22060,53051.36
2589,21968,53071.85
2590,21876,53092.35
2591,21804,53112.85
2592,21760,53133.35
2593,21740,53153.85
2594,21740,53174.35
2595,21756,53194.85
2596,21780,53215.35
2597,21804,53235.85
2598,21836,53256.34
2599,21860,53276.84
2600,21876,53297.34
2601,21880,53317.84
2602,21884,53338.34
2603,21880,53358.84
2604,21880,53379.34
2605,21880,53399.84
2606,21880,53420.34
2607,21896,53440.84
2608,21912,53461.33
2609,21928,53481.83
2610,21948,53502.33
2611,21968,53522.83
2612,21992,53543.33
2613,22012,53563.83
2614,22032,53584.33
2615,22056,53604.83
2616,22076,53625.33
2617,22092,53645.83
2618,22096,53666.32
2619,22064,53686.82
2620,21992,53707.32
2621,21892,53727.82
2622,21800,53748.32
2623,21736,53768.82
2624,21696,53789.32
2625,21680,53809.82
2626,21688,53830.32
2627,21704,53850.82
2628,21728,53871.31
2629,21760,53891.81
2630,21788,53912.31
2631,21812,53932.81
2632,21828,53953.31
2633,21836,53973.81
2634,21836,53994.31
2635,21832,54014.81
2636,21828,54035.31
2637,21832,54055.80
2638,21840,54076.30
2639,21848,54096.80
2640,21868,54117.30
2641,21888,54137.80
2642,21908,54158.30
2643,21928,54178.80
2644,21948,54199.30
2645,21968,54219.80
2646,21992,54240.30
2647,22012,54260.79
2648,22024,54281.29
2649,22044,54301.79
2650,22048,54322.29
2651,22012,54342.79
2652,21932,54363.29
2653,21828,54383.79
2654,21732,54404.29
2655,21656,54424.79
2656,21612,54445.29
2657,21592,54465.78
2658,21596,54486.28
2659,21616,54506.78
2660,21648,54527.28
2661,21680,54547.78
2662,21716,54568.28
2663,21748,54588.78
2664,21772,54609.28
2665,21788,54629.78
2666,21792,54650.28
2667,21792,54670.77
2668,21796,54691.27
2669,21804,54711.77
2670,21816,54732.27
2671,21832,54752.77
2672,21856,54773.27
2673,21880,54793.77
2674,21904,54814.27
2675,21932,54834.77
2676,21960,54855.27
2677,21984,54875.76
2678,22004,54896.26
2679,22024,54916.76
2680,22048,54937.26
2681,22068,54957.76
2682,22092,54978.26
2683,22100,54998.76
2684,22068,55019.26
2685,22000,55039.76
2686,21900,55060.25
2687,21800,55080.75
2688,21720,55101.25
2689,21672,55121.75
2690,21652,55142.25
2691,21656,55162.75
2692,21672,55183.25
2693,21700,55203.75
2694,21736,55224.25
2695,21772,55244.75
2696,21804,55265.24
2697,21824,55285.74
2698,21840,55306.24
2699,21844,55326.74
2700,21840,55347.24
2701,21840,55367.74
2702,21844,55388.24
2703,21852,55408.74
2704,21860,55429.24
2705,21884,55449.74
2706,21904,55470.23
2707,21928,55490.73
2708,21952,55511.23
2709,21976,55531.73
2710,22000,55552.23
2711,22024,55572.73
2712,22048,55593.23
2713,22068,55613.73
2714,22096,55634.23
2715,22120,55654.73
2716,22136,55675.22
2717,22128,55695.72
2718,22068,55716.22
2719,21980,55736.72
2720,21880,55757.22
2721,21796,55777.72
2722,21740,55798.22
2723,21712,55818.72
2724,21712,55839.22
2725,21728,55859.72
2726,21756,55880.21
2727,21796,55900.71
2728,21836,55921.21
2729,21872,55941.71
2730,21904,55962.21
2731,21920,55982.71
2732,21932,56003.21
2733,21932,56023.71
2734,21936,56044.21
2735,21936,56064.70
2736,21944,56085.20
2737,21952,56105.70
2738,21972,56126.20
2739,21988,56146.70
2740,22008,56167.20
2741,22028,56187.70
2742,22052,56208.20
2743,22080,56228.70
2744,22100,56249.20
2745,22124,56269.69
2746,22152,56290.19
2747,22172,56310.69
2748,22188,56331.19
2749,22164,56351.69
2750,22100,56372.19
2751,22012,56392.69
2752,21924,56413.19
2753,21848,56433.69
2754,21804,56454.19
2755,21788,56474.68
2756,21792,56495.18
2757,21812,56515.68
2758,21844,56536.18
2759,21880,56556.68
2760,21916,56577.18
2761,21952,56597.68
2762,21976,56618.18
2763,21988,56638.68
2764,21996,56659.18
2765,21988,56679.67
2766,21984,56700.17
2767,21984,56720.67
2768,21984,56741.17
2769,21996,56761.67
2770,22012,56782.17
2771,22028,56802.67
2772,22044,56823.17
2773,22068,56843.67
2774,22088,56864.16
2775,22112,56884.66
2776,22136,56905.16
2777,22156,56925.66
2778,22168,56946.16
2779,22144,56966.66
2780,22076,56987.16
2781,21992,57007.66
2782,21900,57028.16
2783,21824,57048.66
2784,21780,57069.15
2785,21756,57089.65
2786,21760,57110.15
2787,21780,57130.65
2788,21808,57151.15
2789,21848,57171.65
2790,21884,57192.15
2791,21916,57212.65
2792,21936,57233.15
2793,21956,57253.65
2794,21960,57274.14
2795,21956,57294.64
2796,21952,57315.14
2797,21952,57335.64
2798,21956,57356.14
2799,21964,57376.64
2800,21980,57397.14
2801,21996,57417.64
2802,22020,57438.14
2803,22036,57458.64
2804,22056,57479.13
2805,22080,57499.63
2806,22104,57520.13
2807,22116,57540.63
2808,22108,57561.13
2809,22048,57581.63
2810,21964,57602.13
2811,21860,57622.63
2812,21776,57643.13
2813,21716,57663.63
2814,21684,57684.12
2815,21676,57704.62
2816,21684,57725.12
2817,21708,57745.62
2818,21740,57766.12
2819,21784,57786.62
2820,21816,57807.12
2821,21840,57827.62
2822,21860,57848.12
2823,21868,57868.61
2824,21872,57889.11
2825,21868,57909.61
2826,21872,57930.11
2827,21880,57950.61
2828,21888,57971.11
2829,21904,57991.61
2830,21924,58012.11
2831,21952,58032.61
2832,21972,58053.11
2833,22004,58073.60
2834,22024,58094.10
2835,22052,58114.60
2836,22072,58135.10
2837,22072,58155.60
2838,22024,58176.10
2839,21940,58196.60
2840,21840,58217.10
2841,21744,58237.60
2842,21680,58258.10
2843,21644,58278.59
2844,21628,58299.09
2845,21644,58319.59
2846,21672,58340.09
2847,21712,58360.59
2848,21752,58381.09
2849,21792,58401.59
2850,21820,58422.09
2851,21836,58442.59
2852,21848,58463.09
2853,21844,58483.58
2854,21844,58504.08
2855,21844,58524.58
2856,21848,58545.08
2857,21864,58565.58
2858,21876,58586.08
2859,21896,58606.58
2860,21916,58627.08
2861,21940,58647.58
2862,21968,58668.08
2863,21992,58688.57
2864,22020,58709.07
2865,22044,58729.57
2866,22072,58750.07
2867,22068,58770.57
2868,22016,58791.07
2869,21924,58811.57
2870,21824,58832.07
2871,21740,58852.57
2872,21684,58873.06
2873,21656,58893.56
2874,21656,58914.06
2875,21676,58934.56
2876,21708,58955.06
2877,21748,58975.56
2878,21792,58996.06
2879,21832,59016.56
2880,21856,59037.06
2881,21872,59057.56
2882,21876,59078.05
2883,21876,59098.55
2884,21880,59119.05
2885,21880,59139.55
2886,21884,59160.05
2887,21896,59180.55
2888,21912,59201.05
2889,21936,59221.55
2890,21956,59242.05
2891,21976,59262.55
2892,22000,59283.04
2893,22024,59303.54
2894,22048,59324.04
2895,22072,59344.54
2896,22092,59365.04
2897,22084,59385.54
2898,22028,59406.04
2899,21936,59426.54
2900,21832,59447.04
2901,21740,59467.54
2902,21676,59488.03
2903,21644,59508.53
2904,21640,59529.03
2905,21652,59549.53
2906,21684,59570.03
2907,21728,59590.53
2908,21768,59611.03
2909,21804,59631.53
2910,21832,59652.03
2911,21852,59672.52
2912,21864,59693.02
2913,21868,59713.52
2914,21864,59734.02
2915,21864,59754.52
2916,21872,59775.02
2917,21884,59795.52
2918,21904,59816.02
2919,21928,59836.52
2920,21948,59857.02
2921,21976,59877.51
2922,22004,59898.01
2923,22024,59918.51
2924,22052,59939.01
2925,22076,59959.51
2926,22096,59980.01
2927,22100,60000.51
2928,22060,60021.01
2929,21976,60041.51
2930,21872,60062.01
2931,21780,60082.50
2932,21704,60103.00
2933,21664,60123.50
2934,21652,60144.00
2935,21664,60164.50
2936,21688,60185.00
2937,21724,60205.50
2938,21764,60226.00
2939,21800,60246.50
2940,21832,60267.00
2941,21852,60287.49
2942,21856,60307.99
2943,21860,60328.49
2944,21856,60348.99
2945,21860,60369.49
2946,21860,60389.99
2947,21872,60410.49
2948,21888,60430.99
2949,21900,60451.49
2950,21924,60471.99
2951,21948,60492.48
2952,21972,60512.98
2953,21996,60533.48
2954,22024,60553.98
2955,22044,60574.48
2956,22072,60594.98
2957,22084,60615.48
2958,22048,60635.98
2959,21972,60656.48
2960,21872,60676.97
2961,21776,60697.47
2962,21700,60717.97
2963,21660,60738.47
2964,21644,60758.97
2965,21652,60779.47
2966,21676,60799.97
2967,21708,60820.47
2968,21752,60840.97
2969,21792,60861.47
2970,21820,60881.96
2971,21844,60902.46
2972,21848,60922.96
2973,21848,60943.46
2974,21848,60963.96
2975,21848,60984.46
2976,21844,61004.96
2977,21852,61025.46
2978,21864,61045.96
2979,21880,61066.46
2980,21896,61086.95
2981,21916,61107.45
2982,21940,61127.95
2983,21956,61148.45
2984,21980,61168.95
2985,22004,61189.45
2986,22024,61209.95
2987,22012,61230.45
2988,21948,61250.95
2989,21848,61271.45
2990,21736,61291.94
2991,21636,61312.44
2992,21564,61332.94
2993,21524,61353.44
2994,21516,61373.94
2995,21524,61394.44
2996,21552,61414.94
2997,21584,61435.44
2998,21624,61455.94
2999,21656,61476.44
