Sample_Index,IR_Value,Timestamp_ms
0,22688,0.00
1,22748,20.02
2,22808,40.04
3,22860,60.06
4,22908,80.08
5,22956,100.09
6,23004,120.11
7,23060,140.13
8,23108,160.15
9,23152,180.17
10,23204,200.19
11,23256,220.21
12,23292,240.23
13,23316,260.25
14,23332,280.27
15,23348,300.28
16,23364,320.30
17,23392,340.32
18,23420,360.34
19,23456,380.36
20,23496,400.38
21,23536,420.40
22,23572,440.42
23,23608,460.44
24,23640,480.45
25,23672,500.47
26,23700,520.49
27,23728,540.51
28,23752,560.53
29,23780,580.55
30,23804,600.57
31,23824,620.59
32,23840,640.61
33,23864,660.62
34,23888,680.64
35,23908,700.66
36,23932,720.68
37,23948,740.70
38,23968,760.72
39,23980,780.74
40,23996,800.76
41,24016,820.78
42,24036,840.80
43,24048,860.81
44,24048,880.83
45,24040,900.85
46,24024,920.87
47,24016,940.89
48,24008,960.91
49,24008,980.93
50,24012,1000.95
51,24016,1020.97
52,24024,1040.98
53,24032,1061.00
54,24044,1081.02
55,24052,1101.04
56,24064,1121.06
57,24068,1141.08
58,24072,1161.10
59,24076,1181.12
60,24080,1201.14
61,24088,1221.15
62,24096,1241.17
63,24104,1261.19
64,24116,1281.21
65,24128,1301.23
66,24136,1321.25
67,24144,1341.27
68,24148,1361.29
69,24156,1381.31
70,24168,1401.33
71,24176,1421.34
72,24188,1441.36
73,24200,1461.38
74,24204,1481.40
75,24196,1501.42
76,24184,1521.44
77,24160,1541.46
78,24140,1561.48
79,24124,1581.50
80,24108,1601.51
81,24100,1621.53
82,24096,1641.55
83,24096,1661.57
84,24108,1681.59
85,24116,1701.61
86,24124,1721.63
87,24128,1741.65
88,24128,1761.67
89,24128,1781.69
90,24124,1801.70
91,24120,1821.72
92,24116,1841.74
93,24124,1861.76
94,24120,1881.78
95,24128,1901.80
96,24128,1921.82
97,24132,1941.84
98,24132,1961.86
99,24136,1981.87
100,24140,2001.89
101,24148,2021.91
102,24152,2041.93
103,24152,2061.95
104,24160,2081.97
105,24152,2101.99
106,24140,2122.01
107,24116,2142.03
108,24084,2162.04
109,24048,2182.06
110,24016,2202.08
111,23992,2222.10
112,23980,2242.12
113,23972,2262.14
114,23968,2282.16
115,23968,2302.18
116,23964,2322.20
117,23964,2342.22
118,23956,2362.23
119,23944,2382.25
120,23932,2402.27
121,23916,2422.29
122,23904,2442.31
123,23896,2462.33
124,23880,2482.35
125,23880,2502.37
126,23872,2522.39
127,23864,2542.40
128,23856,2562.42
129,23848,2582.44
130,23836,2602.46
131,23836,2622.48
132,23836,2642.50
133,23828,2662.52
134,23820,2682.54
135,23816,2702.56
136,23816,2722.58
137,23796,2742.59
138,23764,2762.61
139,23712,2782.63
140,23656,2802.65
141,23596,2822.67
142,23548,2842.69
143,23512,2862.71
144,23484,2882.73
145,23464,2902.75
146,23448,2922.76
147,23432,2942.78
148,23424,2962.80
149,23412,2982.82
150,23400,3002.84
151,23380,3022.86
152,23356,3042.88
153,23328,3062.90
154,23304,3082.92
155,23280,3102.93
156,23264,3122.95
157,23244,3142.97
158,23228,3162.99
159,23212,3183.01
160,23200,3203.03
161,23192,3223.05
162,23176,3243.07
163,23172,3263.09
164,23156,3283.11
165,23144,3303.12
166,23132,3323.14
167,23116,3343.16
168,23076,3363.18
169,23024,3383.20
170,22960,3403.22
171,22904,3423.24
172,22856,3443.26
173,22820,3463.28
174,22796,3483.29
175,22776,3503.31
176,22764,3523.33
177,22752,3543.35
178,22736,3563.37
179,22728,3583.39
180,22728,3603.41
181,22732,3623.43
182,22736,3643.45
183,22740,3663.46
184,22748,3683.48
185,22760,3703.50
186,22776,3723.52
187,22796,3743.54
188,22816,3763.56
189,22844,3783.58
190,22868,3803.60
191,22892,3823.62
192,22920,3843.64
193,22940,3863.65
194,22960,3883.67
195,22980,3903.69
196,23008,3923.71
197,23036,3943.73
198,23056,3963.75
199,23072,3983.77
200,23092,4003.79
201,23092,4023.81
202,23096,4043.82
203,23104,4063.84
204,23108,4083.86
205,23112,4103.88
206,23132,4123.90
207,23152,4143.92
208,23176,4163.94
209,23200,4183.96
210,23232,4203.98
211,23260,4224.00
212,23292,4244.01
213,23324,4264.03
214,23360,4284.05
215,23392,4304.07
216,23432,4324.09
217,23464,4344.11
218,23500,4364.13
219,23528,4384.15
220,23560,4404.17
221,23588,4424.18
222,23620,4444.20
223,23648,4464.22
224,23672,4484.24
225,23696,4504.26
226,23724,4524.28
227,23748,4544.30
228,23772,4564.32
229,23792,4584.34
230,23800,4604.35
231,23804,4624.37
232,23808,4644.39
233,23816,4664.41
234,23832,4684.43
235,23852,4704.45
236,23868,4724.47
237,23892,4744.49
238,23912,4764.51
239,23932,4784.53
240,23952,4804.54
241,23980,4824.56
242,23996,4844.58
243,24016,4864.60
244,24032,4884.62
245,24048,4904.64
246,24060,4924.66
247,24076,4944.68
248,24092,4964.70
249,24108,4984.71
250,24124,5004.73
251,24140,5024.75
252,24160,5044.77
253,24176,5064.79
254,24192,5084.81
255,24204,5104.83
256,24216,5124.85
257,24236,5144.87
258,24248,5164.88
259,24260,5184.90
260,24272,5204.92
261,24288,5224.94
262,24300,5244.96
263,24300,5264.98
264,24292,5285.00
265,24292,5305.02
266,24296,5325.04
267,24308,5345.06
268,24324,5365.07
269,24344,5385.09
270,24356,5405.11
271,24372,5425.13
272,24388,5445.15
273,24404,5465.17
274,24416,5485.19
275,24424,5505.21
276,24436,5525.23
277,24444,5545.24
278,24452,5565.26
279,24464,5585.28
280,24476,5605.30
281,24480,5625.32
282,24492,5645.34
283,24504,5665.36
284,24516,5685.38
285,24528,5705.40
286,24536,5725.42
287,24548,5745.43
288,24556,5765.45
289,24568,5785.47
290,24572,5805.49
291,24580,5825.51
292,24584,5845.53
293,24588,5865.55
294,24588,5885.57
295,24576,5905.59
296,24576,5925.60
297,24576,5945.62
298,24584,5965.64
299,24592,5985.66
300,24600,6005.68
301,24608,6025.70
302,24624,6045.72
303,24632,6065.74
304,24644,6085.76
305,24652,6105.77
306,24660,6125.79
307,24668,6145.81
308,24672,6165.83
309,24676,6185.85
310,24680,6205.87
311,24688,6225.89
312,24696,6245.91
313,24704,6265.93
314,24708,6285.95
315,24720,6305.96
316,24728,6325.98
317,24732,6346.00
318,24740,6366.02
319,24748,6386.04
320,24756,6406.06
321,24764,6426.08
322,24772,6446.10
323,24776,6466.12
324,24780,6486.13
325,24784,6506.15
326,24788,6526.17
327,24784,6546.19
328,24768,6566.21
329,24760,6586.23
330,24756,6606.25
331,24760,6626.27
332,24768,6646.29
333,24780,6666.31
334,24788,6686.32
335,24796,6706.34
336,24796,6726.36
337,24804,6746.38
338,24812,6766.40
339,24820,6786.42
340,24820,6806.44
341,24828,6826.46
342,24832,6846.48
343,24832,6866.49
344,24836,6886.51
345,24840,6906.53
346,24848,6926.55
347,24856,6946.57
348,24860,6966.59
349,24872,6986.61
350,24872,7006.63
351,24880,7026.65
352,24888,7046.66
353,24888,7066.68
354,24896,7086.70
355,24896,7106.72
356,24904,7126.74
357,24912,7146.76
358,24904,7166.78
359,24900,7186.80
360,24892,7206.82
361,24888,7226.84
362,24884,7246.85
363,24888,7266.87
364,24896,7286.89
365,24904,7306.91
366,24904,7326.93
367,24912,7346.95
368,24920,7366.97
369,24928,7386.99
370,24928,7407.01
371,24928,7427.02
372,24928,7447.04
373,24928,7467.06
374,24932,7487.08
375,24936,7507.10
376,24936,7527.12
377,24944,7547.14
378,24948,7567.16
379,24956,7587.18
380,24960,7607.19
381,24964,7627.21
382,24968,7647.23
383,24976,7667.25
384,24980,7687.27
385,24984,7707.29
386,24992,7727.31
387,24996,7747.33
388,24988,7767.35
389,24980,7787.37
390,24972,7807.38
391,24968,7827.40
392,24972,7847.42
393,24980,7867.44
394,24988,7887.46
395,24992,7907.48
396,25004,7927.50
397,25008,7947.52
398,25016,7967.54
399,25016,7987.55
400,25016,8007.57
401,25016,8027.59
402,25020,8047.61
403,25016,8067.63
404,25016,8087.65
405,25016,8107.67
406,25020,8127.69
407,25024,8147.71
408,25028,8167.73
409,25032,8187.74
410,25032,8207.76
411,25032,8227.78
412,25036,8247.80
413,25040,8267.82
414,25044,8287.84
415,25052,8307.86
416,25056,8327.88
417,25056,8347.90
418,25056,8367.91
419,25048,8387.93
420,25040,8407.95
421,25032,8427.97
422,25032,8447.99
423,25040,8468.01
424,25048,8488.03
425,25056,8508.05
426,25064,8528.07
427,25068,8548.08
428,25072,8568.10
429,25076,8588.12
430,25080,8608.14
431,25084,8628.16
432,25084,8648.18
433,25084,8668.20
434,25084,8688.22
435,25084,8708.24
436,25088,8728.26
437,25088,8748.27
438,25084,8768.29
439,25084,8788.31
440,25088,8808.33
441,25092,8828.35
442,25092,8848.37
443,25096,8868.39
444,25096,8888.41
445,25104,8908.43
446,25100,8928.44
447,25104,8948.46
448,25108,8968.48
449,25096,8988.50
450,25084,9008.52
451,25076,9028.54
452,25072,9048.56
453,25072,9068.58
454,25072,9088.60
455,25080,9108.61
456,25080,9128.63
457,25088,9148.65
458,25092,9168.67
459,25092,9188.69
460,25100,9208.71
461,25104,9228.73
462,25104,9248.75
463,25100,9268.77
464,25100,9288.79
465,25100,9308.80
466,25096,9328.82
467,25096,9348.84
468,25100,9368.86
469,25100,9388.88
470,25100,9408.90
471,25108,9428.92
472,25112,9448.94
473,25108,9468.96
474,25108,9488.97
475,25112,9508.99
476,25108,9529.01
477,25108,9549.03
478,25096,9569.05
479,25080,9589.07
480,25068,9609.09
481,25056,9629.11
482,25048,9649.13
483,25044,9669.15
484,25044,9689.16
485,25048,9709.18
486,25048,9729.20
487,25048,9749.22
488,25052,9769.24
489,25056,9789.26
490,25056,9809.28
491,25052,9829.30
492,25048,9849.32
493,25048,9869.33
494,25044,9889.35
495,25040,9909.37
496,25040,9929.39
497,25040,9949.41
498,25040,9969.43
499,25040,9989.45
500,25044,10009.47
501,25048,10029.49
502,25044,10049.50
503,25048,10069.52
504,25048,10089.54
505,25044,10109.56
506,25048,10129.58
507,25048,10149.60
508,25048,10169.62
509,25032,10189.64
510,25012,10209.66
511,24992,10229.68
512,24976,10249.69
513,24964,10269.71
514,24960,10289.73
515,24956,10309.75
516,24956,10329.77
517,24948,10349.79
518,24948,10369.81
519,24948,10389.83
520,24944,10409.85
521,24940,10429.86
522,24936,10449.88
523,24928,10469.90
524,24916,10489.92
525,24912,10509.94
526,24908,10529.96
527,24904,10549.98
528,24900,10570.00
529,24904,10590.02
530,24900,10610.04
531,24900,10630.05
532,24900,10650.07
533,24900,10670.09
534,24900,10690.11
535,24900,10710.13
536,24900,10730.15
537,24900,10750.17
538,24896,10770.19
539,24888,10790.21
540,24872,10810.22
541,24848,10830.24
542,24828,10850.26
543,24808,10870.28
544,24800,10890.30
545,24792,10910.32
546,24788,10930.34
547,24792,10950.36
548,24788,10970.38
549,24792,10990.39
550,24792,11010.41
551,24788,11030.43
552,24784,11050.45
553,24772,11070.47
554,24768,11090.49
555,24752,11110.51
556,24748,11130.53
557,24740,11150.55
558,24740,11170.57
559,24740,11190.58
560,24736,11210.60
561,24732,11230.62
562,24736,11250.64
563,24736,11270.66
564,24732,11290.68
565,24736,11310.70
566,24740,11330.72
567,24744,11350.74
568,24736,11370.75
569,24724,11390.77
570,24704,11410.79
571,24676,11430.81
572,24660,11450.83
573,24640,11470.85
574,24632,11490.87
575,24632,11510.89
576,24628,11530.91
577,24624,11550.92
578,24628,11570.94
579,24628,11590.96
580,24624,11610.98
581,24628,11631.00
582,24620,11651.02
583,24612,11671.04
584,24608,11691.06
585,24608,11711.08
586,24604,11731.10
587,24600,11751.11
588,24600,11771.13
589,24600,11791.15
590,24596,11811.17
591,24596,11831.19
592,24592,11851.21
593,24596,11871.23
594,24596,11891.25
595,24596,11911.27
596,24600,11931.28
597,24604,11951.30
598,24604,11971.32
599,24584,11991.34
600,24560,12011.36
601,24532,12031.38
602,24508,12051.40
603,24496,12071.42
604,24488,12091.44
605,24484,12111.46
606,24484,12131.47
607,24488,12151.49
608,24492,12171.51
609,24496,12191.53
610,24496,12211.55
611,24496,12231.57
612,24492,12251.59
613,24488,12271.61
614,24484,12291.63
615,24480,12311.64
616,24476,12331.66
617,24476,12351.68
618,24476,12371.70
619,24472,12391.72
620,24476,12411.74
621,24480,12431.76
622,24484,12451.78
623,24492,12471.80
624,24492,12491.81
625,24496,12511.83
626,24496,12531.85
627,24500,12551.87
628,24508,12571.89
629,24492,12591.91
630,24472,12611.93
631,24444,12631.95
632,24412,12651.97
633,24384,12671.99
634,24376,12692.00
635,24368,12712.02
636,24364,12732.04
637,24368,12752.06
638,24368,12772.08
639,24372,12792.10
640,24376,12812.12
641,24380,12832.14
642,24384,12852.16
643,24384,12872.17
644,24380,12892.19
645,24376,12912.21
646,24376,12932.23
647,24376,12952.25
648,24376,12972.27
649,24376,12992.29
650,24380,13012.31
651,24384,13032.33
652,24392,13052.34
653,24400,13072.36
654,24404,13092.38
655,24412,13112.40
656,24416,13132.42
657,24416,13152.44
658,24420,13172.46
659,24404,13192.48
660,24380,13212.50
661,24356,13232.52
662,24328,13252.53
663,24312,13272.55
664,24304,13292.57
665,24304,13312.59
666,24304,13332.61
667,24308,13352.63
668,24312,13372.65
669,24312,13392.67
670,24320,13412.69
671,24316,13432.70
672,24312,13452.72
673,24312,13472.74
674,24308,13492.76
675,24304,13512.78
676,24300,13532.80
677,24304,13552.82
678,24308,13572.84
679,24308,13592.86
680,24312,13612.88
681,24320,13632.89
682,24328,13652.91
683,24332,13672.93
684,24340,13692.95
685,24348,13712.97
686,24352,13732.99
687,24356,13753.01
688,24356,13773.03
689,24344,13793.05
690,24320,13813.06
691,24296,13833.08
692,24268,13853.10
693,24252,13873.12
694,24240,13893.14
695,24236,13913.16
696,24240,13933.18
697,24244,13953.20
698,24248,13973.22
699,24256,13993.23
700,24260,14013.25
701,24264,14033.27
702,24264,14053.29
703,24264,14073.31
704,24264,14093.33
705,24256,14113.35
706,24256,14133.37
707,24252,14153.39
708,24256,14173.41
709,24256,14193.42
710,24264,14213.44
711,24268,14233.46
712,24272,14253.48
713,24280,14273.50
714,24288,14293.52
715,24292,14313.54
716,24296,14333.56
717,24304,14353.58
718,24312,14373.59
719,24320,14393.61
720,24316,14413.63
721,24300,14433.65
722,24272,14453.67
723,24248,14473.69
724,24228,14493.71
725,24220,14513.73
726,24216,14533.75
727,24224,14553.77
728,24232,14573.78
729,24236,14593.80
730,24244,14613.82
731,24252,14633.84
732,24260,14653.86
733,24256,14673.88
734,24260,14693.90
735,24256,14713.92
736,24248,14733.94
737,24244,14753.95
738,24248,14773.97
739,24252,14793.99
740,24256,14814.01
741,24256,14834.03
742,24260,14854.05
743,24264,14874.07
744,24268,14894.09
745,24268,14914.11
746,24276,14934.12
747,24280,14954.14
748,24284,14974.16
749,24292,14994.18
750,24288,15014.20
751,24268,15034.22
752,24240,15054.24
753,24212,15074.26
754,24192,15094.28
755,24180,15114.30
756,24176,15134.31
757,24176,15154.33
758,24184,15174.35
759,24192,15194.37
760,24196,15214.39
761,24204,15234.41
762,24208,15254.43
763,24208,15274.45
764,24208,15294.47
765,24204,15314.48
766,24208,15334.50
767,24208,15354.52
768,24208,15374.54
769,24212,15394.56
770,24212,15414.58
771,24220,15434.60
772,24220,15454.62
773,24228,15474.64
774,24236,15494.65
775,24244,15514.67
776,24252,15534.69
777,24256,15554.71
778,24264,15574.73
779,24268,15594.75
780,24276,15614.77
781,24272,15634.79
782,24248,15654.81
783,24224,15674.83
784,24192,15694.84
785,24172,15714.86
786,24160,15734.88
787,24152,15754.90
788,24152,15774.92
789,24160,15794.94
790,24160,15814.96
791,24168,15834.98
792,24172,15855.00
793,24180,15875.01
794,24184,15895.03
795,24184,15915.05
796,24184,15935.07
797,24184,15955.09
798,24184,15975.11
799,24184,15995.13
800,24188,16015.15
801,24192,16035.17
802,24196,16055.19
803,24204,16075.20
804,24212,16095.22
805,24220,16115.24
806,24228,16135.26
807,24240,16155.28
808,24244,16175.30
809,24252,16195.32
810,24256,16215.34
811,24264,16235.36
812,24268,16255.37
813,24252,16275.39
814,24232,16295.41
815,24212,16315.43
816,24184,16335.45
817,24168,16355.47
818,24160,16375.49
819,24156,16395.51
820,24156,16415.53
821,24160,16435.54
822,24164,16455.56
823,24172,16475.58
824,24176,16495.60
825,24180,16515.62
826,24180,16535.64
827,24176,16555.66
828,24168,16575.68
829,24164,16595.70
830,24164,16615.72
831,24164,16635.73
832,24164,16655.75
833,24168,16675.77
834,24176,16695.79
835,24180,16715.81
836,24184,16735.83
837,24188,16755.85
838,24196,16775.87
839,24200,16795.89
840,24208,16815.90
841,24208,16835.92
842,24204,16855.94
843,24184,16875.96
844,24152,16895.98
845,24132,16916.00
846,24108,16936.02
847,24100,16956.04
848,24096,16976.06
849,24092,16996.07
850,24096,17016.09
851,24100,17036.11
852,24108,17056.13
853,24116,17076.15
854,24120,17096.17
855,24116,17116.19
856,24112,17136.21
857,24108,17156.23
858,24104,17176.25
859,24100,17196.26
860,24096,17216.28
861,24096,17236.30
862,24100,17256.32
863,24104,17276.34
864,24108,17296.36
865,24112,17316.38
866,24112,17336.40
867,24116,17356.42
868,24124,17376.43
869,24132,17396.45
870,24140,17416.47
871,24136,17436.49
872,24116,17456.51
873,24088,17476.53
874,24064,17496.55
875,24040,17516.57
876,24024,17536.59
877,24016,17556.61
878,24012,17576.62
879,24020,17596.64
880,24024,17616.66
881,24032,17636.68
882,24040,17656.70
883,24048,17676.72
884,24048,17696.74
885,24052,17716.76
886,24048,17736.78
887,24048,17756.79
888,24048,17776.81
889,24052,17796.83
890,24052,17816.85
891,24056,17836.87
892,24060,17856.89
893,24064,17876.91
894,24064,17896.93
895,24072,17916.95
896,24076,17936.96
897,24080,17956.98
898,24092,17977.00
899,24096,17997.02
900,24096,18017.04
901,24084,18037.06
902,24056,18057.08
903,24032,18077.10
904,24000,18097.12
905,23972,18117.14
906,23964,18137.15
907,23956,18157.17
908,23960,18177.19
909,23960,18197.21
910,23972,18217.23
911,23976,18237.25
912,23984,18257.27
913,23988,18277.29
914,23992,18297.31
915,23992,18317.32
916,23992,18337.34
917,23988,18357.36
918,23984,18377.38
919,23980,18397.40
920,23980,18417.42
921,23980,18437.44
922,23984,18457.46
923,23988,18477.48
924,24000,18497.50
925,24000,18517.51
926,24008,18537.53
927,24016,18557.55
928,24020,18577.57
929,24012,18597.59
930,23984,18617.61
931,23956,18637.63
932,23924,18657.65
933,23892,18677.67
934,23868,18697.68
935,23856,18717.70
936,23860,18737.72
937,23860,18757.74
938,23860,18777.76
939,23868,18797.78
940,23872,18817.80
941,23880,18837.82
942,23884,18857.84
943,23884,18877.85
944,23884,18897.87
945,23884,18917.89
946,23880,18937.91
947,23880,18957.93
948,23888,18977.95
949,23888,18997.97
950,23896,19017.99
951,23904,19038.01
952,23912,19058.03
953,23924,19078.04
954,23932,19098.06
955,23940,19118.08
956,23952,19138.10
957,23952,19158.12
958,23948,19178.14
959,23928,19198.16
960,23896,19218.18
961,23860,19238.20
962,23836,19258.21
963,23816,19278.23
964,23804,19298.25
965,23800,19318.27
966,23800,19338.29
967,23804,19358.31
968,23812,19378.33
969,23816,19398.35
970,23824,19418.37
971,23828,19438.38
972,23828,19458.40
973,23824,19478.42
974,23820,19498.44
975,23820,19518.46
976,23816,19538.48
977,23820,19558.50
978,23828,19578.52
979,23836,19598.54
980,23844,19618.56
981,23852,19638.57
982,23864,19658.59
983,23872,19678.61
984,23884,19698.63
985,23892,19718.65
986,23904,19738.67
987,23904,19758.69
988,23884,19778.71
989,23860,19798.73
990,23824,19818.74
991,23792,19838.76
992,23768,19858.78
993,23760,19878.80
994,23756,19898.82
995,23764,19918.84
996,23772,19938.86
997,23780,19958.88
998,23788,19978.90
999,23796,19998.92
1000,23796,20018.93
1001,23796,20038.95
1002,23792,20058.97
1003,23788,20078.99
1004,23788,20099.01
1005,23784,20119.03
1006,23784,20139.05
1007,23792,20159.07
1008,23796,20179.09
1009,23804,20199.10
1010,23808,20219.12
1011,23816,20239.14
1012,23824,20259.16
1013,23836,20279.18
1014,23844,20299.20
1015,23852,20319.22
1016,23848,20339.24
1017,23832,20359.26
1018,23796,20379.27
1019,23764,20399.29
1020,23740,20419.31
1021,23724,20439.33
1022,23712,20459.35
1023,23716,20479.37
1024,23724,20499.39
1025,23732,20519.41
1026,23744,20539.43
1027,23756,20559.45
1028,23764,20579.46
1029,23772,20599.48
1030,23768,20619.50
1031,23764,20639.52
1032,23760,20659.54
1033,23760,20679.56
1034,23764,20699.58
1035,23764,20719.60
1036,23772,20739.62
1037,23776,20759.63
1038,23784,20779.65
1039,23792,20799.67
1040,23800,20819.69
1041,23804,20839.71
1042,23812,20859.73
1043,23816,20879.75
1044,23812,20899.77
1045,23792,20919.79
1046,23756,20939.80
1047,23724,20959.82
1048,23688,20979.84
1049,23660,20999.86
1050,23648,21019.88
1051,23640,21039.90
1052,23640,21059.92
1053,23652,21079.94
1054,23660,21099.96
1055,23672,21119.98
1056,23680,21139.99
1057,23684,21160.01
1058,23680,21180.03
1059,23680,21200.05
1060,23676,21220.07
1061,23672,21240.09
1062,23672,21260.11
1063,23676,21280.13
1064,23680,21300.15
1065,23684,21320.16
1066,23688,21340.18
1067,23696,21360.20
1068,23704,21380.22
1069,23708,21400.24
1070,23716,21420.26
1071,23724,21440.28
1072,23728,21460.30
1073,23704,21480.32
1074,23664,21500.34
1075,23616,21520.35
1076,23568,21540.37
1077,23536,21560.39
1078,23512,21580.41
1079,23504,21600.43
1080,23496,21620.45
1081,23500,21640.47
1082,23500,21660.49
1083,23504,21680.51
1084,23504,21700.52
1085,23512,21720.54
1086,23508,21740.56
1087,23504,21760.58
1088,23492,21780.60
1089,23488,21800.62
1090,23488,21820.64
1091,23480,21840.66
1092,23484,21860.68
1093,23488,21880.69
1094,23496,21900.71
1095,23508,21920.73
1096,23516,21940.75
1097,23532,21960.77
1098,23540,21980.79
1099,23552,22000.81
1100,23564,22020.83
1101,23564,22040.85
1102,23544,22060.87
1103,23504,22080.88
1104,23456,22100.90
1105,23404,22120.92
1106,23372,22140.94
1107,23348,22160.96
1108,23336,22180.98
1109,23340,22201.00
1110,23340,22221.02
1111,23348,22241.04
1112,23356,22261.05
1113,23368,22281.07
1114,23376,22301.09
1115,23376,22321.11
1116,23380,22341.13
1117,23376,22361.15
1118,23376,22381.17
1119,23372,22401.19
1120,23372,22421.21
1121,23376,22441.23
1122,23380,22461.24
1123,23392,22481.26
1124,23404,22501.28
1125,23420,22521.30
1126,23428,22541.32
1127,23440,22561.34
1128,23448,22581.36
1129,23460,22601.38
1130,23472,22621.40
1131,23492,22641.41
1132,23484,22661.43
1133,23452,22681.45
1134,23408,22701.47
1135,23352,22721.49
1136,23308,22741.51
1137,23276,22761.53
1138,23260,22781.55
1139,23252,22801.57
1140,23256,22821.58
1141,23268,22841.60
1142,23280,22861.62
1143,23300,22881.64
1144,23312,22901.66
1145,23324,22921.68
1146,23328,22941.70
1147,23324,22961.72
1148,23328,22981.74
1149,23328,23001.76
1150,23332,23021.77
1151,23336,23041.79
1152,23340,23061.81
1153,23344,23081.83
1154,23356,23101.85
1155,23372,23121.87
1156,23388,23141.89
1157,23400,23161.91
1158,23416,23181.93
1159,23420,23201.94
1160,23432,23221.96
1161,23436,23241.98
1162,23436,23262.00
1163,23416,23282.02
1164,23372,23302.04
1165,23316,23322.06
1166,23256,23342.08
1167,23212,23362.10
1168,23180,23382.11
1169,23176,23402.13
1170,23176,23422.15
1171,23184,23442.17
1172,23204,23462.19
1173,23216,23482.21
1174,23236,23502.23
1175,23256,23522.25
1176,23264,23542.27
1177,23264,23562.29
1178,23260,23582.30
1179,23260,23602.32
1180,23260,23622.34
1181,23264,23642.36
1182,23276,23662.38
1183,23288,23682.40
1184,23304,23702.42
1185,23320,23722.44
1186,23336,23742.46
1187,23356,23762.47
1188,23372,23782.49
1189,23388,23802.51
1190,23412,23822.53
1191,23432,23842.55
1192,23448,23862.57
1193,23444,23882.59
1194,23416,23902.61
1195,23368,23922.63
1196,23316,23942.65
1197,23272,23962.66
1198,23244,23982.68
1199,23236,24002.70
1200,23236,24022.72
1201,23244,24042.74
1202,23268,24062.76
1203,23288,24082.78
1204,23312,24102.80
1205,23336,24122.82
1206,23352,24142.83
1207,23364,24162.85
1208,23372,24182.87
1209,23380,24202.89
1210,23388,24222.91
1211,23396,24242.93
1212,23408,24262.95
1213,23428,24282.97
1214,23448,24302.99
1215,23464,24323.00
1216,23480,24343.02
1217,23500,24363.04
1218,23528,24383.06
1219,23544,24403.08
1220,23564,24423.10
1221,23588,24443.12
1222,23596,24463.14
1223,23592,24483.16
1224,23560,24503.18
1225,23508,24523.19
1226,23456,24543.21
1227,23412,24563.23
1228,23380,24583.25
1229,23368,24603.27
1230,23364,24623.29
1231,23372,24643.31
1232,23388,24663.33
1233,23408,24683.35
1234,23424,24703.36
1235,23440,24723.38
1236,23456,24743.40
1237,23460,24763.42
1238,23468,24783.44
1239,23468,24803.46
1240,23468,24823.48
1241,23472,24843.50
1242,23476,24863.52
1243,23484,24883.53
1244,23492,24903.55
1245,23504,24923.57
1246,23520,24943.59
1247,23532,24963.61
1248,23548,24983.63
1249,23568,25003.65
1250,23584,25023.67
1251,23600,25043.69
1252,23616,25063.71
1253,23612,25083.72
1254,23584,25103.74
1255,23540,25123.76
1256,23484,25143.78
1257,23432,25163.80
1258,23404,25183.82
1259,23392,25203.84
1260,23388,25223.86
1261,23396,25243.88
1262,23412,25263.89
1263,23432,25283.91
1264,23452,25303.93
1265,23472,25323.95
1266,23484,25343.97
1267,23496,25363.99
1268,23504,25384.01
1269,23508,25404.03
1270,23508,25424.05
1271,23508,25444.07
1272,23512,25464.08
1273,23524,25484.10
1274,23532,25504.12
1275,23544,25524.14
1276,23560,25544.16
1277,23576,25564.18
1278,23592,25584.20
1279,23604,25604.22
1280,23616,25624.24
1281,23632,25644.25
1282,23644,25664.27
1283,23632,25684.29
1284,23600,25704.31
1285,23556,25724.33
1286,23496,25744.35
1287,23452,25764.37
1288,23424,25784.39
1289,23416,25804.41
1290,23412,25824.42
1291,23424,25844.44
1292,23436,25864.46
1293,23460,25884.48
1294,23480,25904.50
1295,23496,25924.52
1296,23512,25944.54
1297,23524,25964.56
1298,23528,25984.58
1299,23528,26004.60
1300,23532,26024.61
1301,23532,26044.63
1302,23540,26064.65
1303,23544,26084.67
1304,23560,26104.69
1305,23572,26124.71
1306,23588,26144.73
1307,23604,26164.75
1308,23620,26184.77
1309,23632,26204.78
1310,23648,26224.80
1311,23656,26244.82
1312,23644,26264.84
1313,23608,26284.86
1314,23552,26304.88
1315,23500,26324.90
1316,23460,26344.92
1317,23436,26364.94
1318,23428,26384.96
1319,23428,26404.97
1320,23444,26424.99
1321,23460,26445.01
1322,23476,26465.03
1323,23488,26485.05
1324,23504,26505.07
1325,23512,26525.09
1326,23516,26545.11
1327,23516,26565.13
1328,23520,26585.14
1329,23524,26605.16
1330,23524,26625.18
1331,23528,26645.20
1332,23536,26665.22
1333,23544,26685.24
1334,23552,26705.26
1335,23564,26725.28
1336,23580,26745.30
1337,23596,26765.31
1338,23616,26785.33
1339,23628,26805.35
1340,23620,26825.37
1341,23588,26845.39
1342,23532,26865.41
1343,23468,26885.43
1344,23416,26905.45
1345,23380,26925.47
1346,23360,26945.49
1347,23356,26965.50
1348,23364,26985.52
1349,23376,27005.54
1350,23396,27025.56
1351,23412,27045.58
1352,23432,27065.60
1353,23444,27085.62
1354,23452,27105.64
1355,23452,27125.66
1356,23460,27145.67
1357,23460,27165.69
1358,23464,27185.71
1359,23468,27205.73
1360,23476,27225.75
1361,23484,27245.77
1362,23496,27265.79
1363,23508,27285.81
1364,23516,27305.83
1365,23532,27325.84
1366,23544,27345.86
1367,23560,27365.88
1368,23576,27385.90
1369,23568,27405.92
1370,23532,27425.94
1371,23472,27445.96
1372,23400,27465.98
1373,23340,27486.00
1374,23296,27506.02
1375,23272,27526.03
1376,23260,27546.05
1377,23264,27566.07
1378,23276,27586.09
1379,23292,27606.11
1380,23312,27626.13
1381,23336,27646.15
1382,23348,27666.17
1383,23360,27686.19
1384,23368,27706.20
1385,23372,27726.22
1386,23376,27746.24
1387,23372,27766.26
1388,23380,27786.28
1389,23392,27806.30
1390,23400,27826.32
1391,23416,27846.34
1392,23436,27866.36
1393,23448,27886.38
1394,23464,27906.39
1395,23480,27926.41
1396,23496,27946.43
1397,23516,27966.45
1398,23512,27986.47
1399,23480,28006.49
1400,23424,28026.51
1401,23356,28046.53
1402,23284,28066.55
1403,23244,28086.56
1404,23208,28106.58
1405,23200,28126.60
1406,23204,28146.62
1407,23216,28166.64
1408,23228,28186.66
1409,23244,28206.68
1410,23264,28226.70
1411,23280,28246.72
1412,23292,28266.73
1413,23296,28286.75
1414,23300,28306.77
1415,23300,28326.79
1416,23300,28346.81
1417,23304,28366.83
1418,23308,28386.85
1419,23316,28406.87
1420,23332,28426.89
1421,23348,28446.91
1422,23364,28466.92
1423,23380,28486.94
1424,23396,28506.96
1425,23416,28526.98
1426,23436,28547.00
1427,23428,28567.02
1428,23388,28587.04
1429,23320,28607.06
1430,23256,28627.08
1431,23196,28647.09
1432,23160,28667.11
1433,23144,28687.13
1434,23144,28707.15
1435,23152,28727.17
1436,23172,28747.19
1437,23192,28767.21
1438,23216,28787.23
1439,23240,28807.25
1440,23252,28827.26
1441,23264,28847.28
1442,23268,28867.30
1443,23268,28887.32
1444,23272,28907.34
1445,23268,28927.36
1446,23272,28947.38
1447,23276,28967.40
1448,23284,28987.42
1449,23296,29007.44
1450,23312,29027.45
1451,23328,29047.47
1452,23348,29067.49
1453,23364,29087.51
1454,23372,29107.53
1455,23352,29127.55
1456,23296,29147.57
1457,23232,29167.59
1458,23160,29187.61
1459,23112,29207.62
1460,23084,29227.64
1461,23080,29247.66
1462,23088,29267.68
1463,23104,29287.70
1464,23128,29307.72
1465,23148,29327.74
1466,23176,29347.76
1467,23196,29367.78
1468,23212,29387.80
1469,23216,29407.81
1470,23220,29427.83
1471,23216,29447.85
1472,23220,29467.87
1473,23220,29487.89
1474,23228,29507.91
1475,23236,29527.93
1476,23248,29547.95
1477,23260,29567.97
1478,23276,29587.98
1479,23292,29608.00
1480,23316,29628.02
1481,23328,29648.04
1482,23328,29668.06
1483,23288,29688.08
1484,23216,29708.10
1485,23136,29728.12
1486,23064,29748.14
1487,23016,29768.15
1488,22996,29788.17
1489,22992,29808.19
1490,23004,29828.21
1491,23020,29848.23
1492,23036,29868.25
1493,23060,29888.27
1494,23084,29908.29
1495,23100,29928.31
1496,23108,29948.33
1497,23112,29968.34
1498,23116,29988.36
1499,23112,30008.38
1500,23116,30028.40
1501,23120,30048.42
1502,23124,30068.44
1503,23136,30088.46
1504,23148,30108.48
1505,23164,30128.50
1506,23176,30148.51
1507,23196,30168.53
1508,23216,30188.55
1509,23236,30208.57
1510,23248,30228.59
1511,23232,30248.61
1512,23180,30268.63
1513,23096,30288.65
1514,23012,30308.67
1515,22952,30328.69
1516,22912,30348.70
1517,22900,30368.72
1518,22904,30388.74
1519,22916,30408.76
1520,22932,30428.78
1521,22952,30448.80
1522,22972,30468.82
1523,22988,30488.84
1524,23004,30508.86
1525,23016,30528.87
1526,23020,30548.89
1527,23024,30568.91
1528,23024,30588.93
1529,23024,30608.95
1530,23032,30628.97
1531,23040,30648.99
1532,23056,30669.01
1533,23064,30689.03
1534,23084,30709.04
1535,23104,30729.06
1536,23108,30749.08
1537,23128,30769.10
1538,23152,30789.12
1539,23200,30809.14
1540,23248,30829.16
1541,23288,30849.18
1542,23304,30869.20
1543,23292,30889.22
1544,23236,30909.23
1545,23152,30929.25
1546,23036,30949.27
1547,22940,30969.29
1548,22876,30989.31
1549,22840,31009.33
1550,22832,31029.35
1551,22836,31049.37
1552,22852,31069.39
1553,22864,31089.40
1554,22884,31109.42
1555,22904,31129.44
1556,22924,31149.46
1557,22936,31169.48
1558,22940,31189.50
1559,22940,31209.52
1560,22944,31229.54
1561,22940,31249.56
1562,22944,31269.57
1563,22952,31289.59
1564,22968,31309.61
1565,22984,31329.63
1566,23004,31349.65
1567,23024,31369.67
1568,23048,31389.69
1569,23072,31409.71
1570,23096,31429.73
1571,23120,31449.75
1572,23144,31469.76
1573,23172,31489.78
1574,23196,31509.80
1575,23220,31529.82
1576,23244,31549.84
1577,23264,31569.86
1578,23268,31589.88
1579,23228,31609.90
1580,23152,31629.92
1581,23060,31649.93
1582,22976,31669.95
1583,22920,31689.97
1584,22892,31709.99
1585,22880,31730.01
1586,22892,31750.03
1587,22912,31770.05
1588,22932,31790.07
1589,22960,31810.09
1590,22988,31830.11
1591,23012,31850.12
1592,23032,31870.14
1593,23044,31890.16
1594,23044,31910.18
1595,23044,31930.20
1596,23044,31950.22
1597,23044,31970.24
1598,23044,31990.26
1599,23056,32010.28
1600,23068,32030.29
1601,23080,32050.31
1602,23100,32070.33
1603,23120,32090.35
1604,23140,32110.37
1605,23160,32130.39
1606,23180,32150.41
1607,23204,32170.43
1608,23224,32190.45
1609,23244,32210.46
1610,23260,32230.48
1611,23284,32250.50
1612,23304,32270.52
1613,23312,32290.54
1614,23276,32310.56
1615,23200,32330.58
1616,23112,32350.60
1617,23028,32370.62
1618,22972,32390.64
1619,22944,32410.65
1620,22940,32430.67
1621,22952,32450.69
1622,22972,32470.71
1623,23000,32490.73
1624,23036,32510.75
1625,23060,32530.77
1626,23084,32550.79
1627,23104,32570.81
1628,23116,32590.82
1629,23120,32610.84
1630,23112,32630.86
1631,23112,32650.88
1632,23108,32670.90
1633,23112,32690.92
1634,23120,32710.94
1635,23128,32730.96
1636,23136,32750.98
1637,23152,32770.99
1638,23168,32791.01
1639,23188,32811.03
1640,23204,32831.05
1641,23228,32851.07
1642,23244,32871.09
1643,23268,32891.11
1644,23284,32911.13
1645,23280,32931.15
1646,23228,32951.17
1647,23152,32971.18
1648,23068,32991.20
1649,22996,33011.22
1650,22948,33031.24
1651,22928,33051.26
1652,22928,33071.28
1653,22940,33091.30
1654,22964,33111.32
1655,22992,33131.34
1656,23020,33151.35
1657,23048,33171.37
1658,23076,33191.39
1659,23092,33211.41
1660,23104,33231.43
1661,23100,33251.45
1662,23096,33271.47
1663,23096,33291.49
1664,23096,33311.51
1665,23100,33331.53
1666,23116,33351.54
1667,23128,33371.56
1668,23144,33391.58
1669,23160,33411.60
1670,23176,33431.62
1671,23192,33451.64
1672,23208,33471.66
1673,23228,33491.68
1674,23244,33511.70
1675,23248,33531.71
1676,23208,33551.73
1677,23132,33571.75
1678,23036,33591.77
1679,22952,33611.79
1680,22888,33631.81
1681,22856,33651.83
1682,22844,33671.85
1683,22852,33691.87
1684,22864,33711.88
1685,22888,33731.90
1686,22920,33751.92
1687,22948,33771.94
1688,22972,33791.96
1689,22992,33811.98
1690,23000,33832.00
1691,23004,33852.02
1692,23000,33872.04
1693,23004,33892.06
1694,23012,33912.07
1695,23012,33932.09
1696,23028,33952.11
1697,23040,33972.13
1698,23056,33992.15
1699,23076,34012.17
1700,23092,34032.19
1701,23116,34052.21
1702,23136,34072.23
1703,23160,34092.24
1704,23176,34112.26
1705,23192,34132.28
1706,23168,34152.30
1707,23100,34172.32
1708,23008,34192.34
1709,22916,34212.36
1710,22844,34232.38
1711,22796,34252.40
1712,22780,34272.42
1713,22780,34292.43
1714,22792,34312.45
1715,22812,34332.47
1716,22840,34352.49
1717,22864,34372.51
1718,22892,34392.53
1719,22912,34412.55
1720,22924,34432.57
1721,22928,34452.59
1722,22928,34472.60
1723,22932,34492.62
1724,22928,34512.64
1725,22936,34532.66
1726,22944,34552.68
1727,22956,34572.70
1728,22976,34592.72
1729,22996,34612.74
1730,23016,34632.76
1731,23036,34652.77
1732,23056,34672.79
1733,23080,34692.81
1734,23104,34712.83
1735,23128,34732.85
1736,23140,34752.87
1737,23112,34772.89
1738,23040,34792.91
1739,22940,34812.93
1740,22852,34832.95
1741,22788,34852.96
1742,22752,34872.98
1743,22740,34893.00
1744,22744,34913.02
1745,22764,34933.04
1746,22788,34953.06
1747,22820,34973.08
1748,22852,34993.10
1749,22872,35013.12
1750,22892,35033.13
1751,22900,35053.15
1752,22904,35073.17
1753,22896,35093.19
1754,22900,35113.21
1755,22900,35133.23
1756,22900,35153.25
1757,22912,35173.27
1758,22920,35193.29
1759,22936,35213.30
1760,22956,35233.32
1761,22972,35253.34
1762,22992,35273.36
1763,23016,35293.38
1764,23036,35313.40
1765,23056,35333.42
1766,23080,35353.44
1767,23064,35373.46
1768,23008,35393.48
1769,22920,35413.49
1770,22836,35433.51
1771,22768,35453.53
1772,22728,35473.55
1773,22716,35493.57
1774,22720,35513.59
1775,22744,35533.61
1776,22768,35553.63
1777,22796,35573.65
1778,22828,35593.66
1779,22856,35613.68
1780,22872,35633.70
1781,22884,35653.72
1782,22892,35673.74
1783,22888,35693.76
1784,22888,35713.78
1785,22884,35733.80
1786,22888,35753.82
1787,22892,35773.84
1788,22900,35793.85
1789,22912,35813.87
1790,22928,35833.89
1791,22940,35853.91
1792,22956,35873.93
1793,22976,35893.95
1794,23000,35913.97
1795,23024,35933.99
1796,23016,35954.01
1797,22964,35974.02
1798,22876,35994.04
1799,22792,36014.06
1800,22720,36034.08
1801,22684,36054.10
1802,22664,36074.12
1803,22668,36094.14
1804,22684,36114.16
1805,22712,36134.18
1806,22740,36154.19
1807,22776,36174.21
1808,22796,36194.23
1809,22820,36214.25
1810,22836,36234.27
1811,22840,36254.29
1812,22840,36274.31
1813,22840,36294.33
1814,22844,36314.35
1815,22848,36334.37
1816,22856,36354.38
1817,22868,36374.40
1818,22884,36394.42
1819,22900,36414.44
1820,22924,36434.46
1821,22940,36454.48
1822,22960,36474.50
1823,22980,36494.52
1824,23000,36514.54
1825,23000,36534.55
1826,22948,36554.57
1827,22860,36574.59
1828,22764,36594.61
1829,22684,36614.63
1830,22628,36634.65
1831,22604,36654.67
1832,22604,36674.69
1833,22616,36694.71
1834,22640,36714.72
1835,22672,36734.74
1836,22700,36754.76
1837,22728,36774.78
1838,22752,36794.80
1839,22764,36814.82
1840,22776,36834.84
1841,22776,36854.86
1842,22780,36874.88
1843,22784,36894.90
1844,22788,36914.91
1845,22796,36934.93
1846,22808,36954.95
1847,22824,36974.97
1848,22844,36994.99
1849,22860,37015.01
1850,22884,37035.03
1851,22904,37055.05
1852,22928,37075.07
1853,22948,37095.08
1854,22968,37115.10
1855,22956,37135.12
1856,22892,37155.14
1857,22796,37175.16
1858,22708,37195.18
1859,22632,37215.20
1860,22592,37235.22
1861,22576,37255.24
1862,22576,37275.26
1863,22592,37295.27
1864,22616,37315.29
1865,22648,37335.31
1866,22672,37355.33
1867,22700,37375.35
1868,22720,37395.37
1869,22736,37415.39
1870,22744,37435.41
1871,22744,37455.43
1872,22744,37475.44
1873,22744,37495.46
1874,22748,37515.48
1875,22756,37535.50
1876,22768,37555.52
1877,22780,37575.54
1878,22796,37595.56
1879,22816,37615.58
1880,22840,37635.60
1881,22860,37655.61
1882,22884,37675.63
1883,22908,37695.65
1884,22928,37715.67
1885,22936,37735.69
1886,22904,37755.71
1887,22828,37775.73
1888,22732,37795.75
1889,22648,37815.77
1890,22584,37835.79
1891,22556,37855.80
1892,22552,37875.82
1893,22560,37895.84
1894,22580,37915.86
1895,22612,37935.88
1896,22648,37955.90
1897,22676,37975.92
1898,22708,37995.94
1899,22724,38015.96
1900,22736,38035.97
1901,22740,38055.99
1902,22736,38076.01
1903,22732,38096.03
1904,22732,38116.05
1905,22736,38136.07
1906,22744,38156.09
1907,22756,38176.11
1908,22768,38196.13
1909,22780,38216.15
1910,22804,38236.16
1911,22820,38256.18
1912,22844,38276.20
1913,22860,38296.22
1914,22880,38316.24
1915,22880,38336.26
1916,22832,38356.28
1917,22748,38376.30
1918,22656,38396.32
1919,22576,38416.33
1920,22528,38436.35
1921,22508,38456.37
1922,22508,38476.39
1923,22524,38496.41
1924,22556,38516.43
1925,22588,38536.45
1926,22624,38556.47
1927,22652,38576.49
1928,22680,38596.50
1929,22692,38616.52
1930,22696,38636.54
1931,22688,38656.56
1932,22688,38676.58
1933,22688,38696.60
1934,22688,38716.62
1935,22700,38736.64
1936,22712,38756.66
1937,22728,38776.68
1938,22752,38796.69
1939,22772,38816.71
1940,22800,38836.73
1941,22824,38856.75
1942,22844,38876.77
1943,22864,38896.79
1944,22880,38916.81
1945,22864,38936.83
1946,22796,38956.85
1947,22704,38976.86
1948,22600,38996.88
1949,22532,39016.90
1950,22492,39036.92
1951,22480,39056.94
1952,22488,39076.96
1953,22512,39096.98
1954,22540,39117.00
1955,22572,39137.02
1956,22608,39157.03
1957,22636,39177.05
1958,22660,39197.07
1959,22676,39217.09
1960,22684,39237.11
1961,22680,39257.13
1962,22688,39277.15
1963,22692,39297.17
1964,22692,39317.19
1965,22704,39337.21
1966,22724,39357.22
1967,22740,39377.24
1968,22760,39397.26
1969,22788,39417.28
1970,22812,39437.30
1971,22832,39457.32
1972,22856,39477.34
1973,22876,39497.36
1974,22900,39517.38
1975,22912,39537.39
1976,22872,39557.41
1977,22788,39577.43
1978,22688,39597.45
1979,22588,39617.47
1980,22528,39637.49
1981,22492,39657.51
1982,22484,39677.53
1983,22492,39697.55
1984,22512,39717.57
1985,22540,39737.58
1986,22572,39757.60
1987,22608,39777.62
1988,22632,39797.64
1989,22652,39817.66
1990,22664,39837.68
1991,22668,39857.70
1992,22668,39877.72
1993,22668,39897.74
1994,22664,39917.75
1995,22672,39937.77
1996,22680,39957.79
1997,22692,39977.81
1998,22712,39997.83
1999,22732,40017.85
2000,22752,40037.87
2001,22776,40057.89
2002,22800,40077.91
2003,22824,40097.92
2004,22844,40117.94
2005,22864,40137.96
2006,22884,40157.98
2007,22868,40178.00
2008,22800,40198.02
2009,22700,40218.04
2010,22592,40238.06
2011,22516,40258.08
2012,22472,40278.10
2013,22452,40298.11
2014,22456,40318.13
2015,22476,40338.15
2016,22508,40358.17
2017,22544,40378.19
2018,22580,40398.21
2019,22612,40418.23
2020,22640,40438.25
2021,22652,40458.27
2022,22652,40478.28
2023,22652,40498.30
2024,22648,40518.32
2025,22648,40538.34
2026,22644,40558.36
2027,22656,40578.38
2028,22660,40598.40
2029,22680,40618.42
2030,22696,40638.44
2031,22716,40658.45
2032,22736,40678.47
2033,22752,40698.49
2034,22772,40718.51
2035,22792,40738.53
2036,22812,40758.55
2037,22820,40778.57
2038,22788,40798.59
2039,22708,40818.61
2040,22608,40838.63
2041,22512,40858.64
2042,22452,40878.66
2043,22420,40898.68
2044,22416,40918.70
2045,22428,40938.72
2046,22452,40958.74
2047,22484,40978.76
2048,22520,40998.78
2049,22552,41018.80
2050,22580,41038.81
2051,22596,41058.83
2052,22600,41078.85
2053,22600,41098.87
2054,22592,41118.89
2055,22584,41138.91
2056,22580,41158.93
2057,22584,41178.95
2058,22592,41198.97
2059,22604,41218.99
2060,22620,41239.00
2061,22632,41259.02
2062,22648,41279.04
2063,22668,41299.06
2064,22684,41319.08
2065,22700,41339.10
2066,22720,41359.12
2067,22728,41379.14
2068,22696,41399.16
2069,22616,41419.17
2070,22512,41439.19
2071,22424,41459.21
2072,22356,41479.23
2073,22324,41499.25
2074,22316,41519.27
2075,22332,41539.29
2076,22352,41559.31
2077,22384,41579.33
2078,22416,41599.34
2079,22452,41619.36
2080,22484,41639.38
2081,22504,41659.40
2082,22520,41679.42
2083,22520,41699.44
2084,22520,41719.46
2085,22516,41739.48
2086,22520,41759.50
2087,22524,41779.52
2088,22540,41799.53
2089,22556,41819.55
2090,22576,41839.57
2091,22596,41859.59
2092,22620,41879.61
2093,22644,41899.63
2094,22664,41919.65
2095,22688,41939.67
2096,22704,41959.69
2097,22724,41979.70
2098,22732,41999.72
2099,22684,42019.74
2100,22596,42039.76
2101,22488,42059.78
2102,22396,42079.80
2103,22340,42099.82
2104,22312,42119.84
2105,22312,42139.86
2106,22324,42159.88
2107,22348,42179.89
2108,22380,42199.91
2109,22412,42219.93
2110,22436,42239.95
2111,22468,42259.97
2112,22480,42279.99
2113,22492,42300.01
2114,22492,42320.03
2115,22492,42340.05
2116,22492,42360.06
2117,22492,42380.08
2118,22500,42400.10
2119,22508,42420.12
2120,22520,42440.14
2121,22544,42460.16
2122,22564,42480.18
2123,22584,42500.20
2124,22608,42520.22
2125,22628,42540.23
2126,22652,42560.25
2127,22676,42580.27
2128,22696,42600.29
2129,22716,42620.31
2130,22716,42640.33
2131,22664,42660.35
2132,22564,42680.37
2133,22456,42700.39
2134,22368,42720.41
2135,22308,42740.42
2136,22288,42760.44
2137,22284,42780.46
2138,22308,42800.48
2139,22328,42820.50
2140,22360,42840.52
2141,22392,42860.54
2142,22428,42880.56
2143,22456,42900.58
2144,22472,42920.59
2145,22476,42940.61
2146,22472,42960.63
2147,22468,42980.65
2148,22464,43000.67
2149,22464,43020.69
2150,22468,43040.71
2151,22480,43060.73
2152,22488,43080.75
2153,22504,43100.76
2154,22528,43120.78
2155,22548,43140.80
2156,22572,43160.82
2157,22592,43180.84
2158,22612,43200.86
2159,22632,43220.88
2160,22652,43240.90
2161,22668,43260.92
2162,22672,43280.94
2163,22628,43300.95
2164,22540,43320.97
2165,22432,43340.99
2166,22344,43361.01
2167,22284,43381.03
2168,22260,43401.05
2169,22264,43421.07
2170,22280,43441.09
2171,22312,43461.11
2172,22344,43481.12
2173,22384,43501.14
2174,22420,43521.16
2175,22444,43541.18
2176,22468,43561.20
2177,22472,43581.22
2178,22468,43601.24
2179,22456,43621.26
2180,22452,43641.28
2181,22452,43661.30
2182,22460,43681.31
2183,22468,43701.33
2184,22488,43721.35
2185,22508,43741.37
2186,22524,43761.39
2187,22544,43781.41
2188,22564,43801.43
2189,22580,43821.45
2190,22600,43841.47
2191,22616,43861.48
2192,22628,43881.50
2193,22644,43901.52
2194,22652,43921.54
2195,22612,43941.56
2196,22520,43961.58
2197,22408,43981.60
2198,22308,44001.62
2199,22240,44021.64
2200,22208,44041.65
2201,22204,44061.67
2202,22224,44081.69
2203,22248,44101.71
2204,22280,44121.73
2205,22316,44141.75
2206,22352,44161.77
2207,22376,44181.79
2208,22392,44201.81
2209,22396,44221.83
2210,22400,44241.84
2211,22396,44261.86
2212,22392,44281.88
2213,22396,44301.90
2214,22400,44321.92
2215,22412,44341.94
2216,22428,44361.96
2217,22448,44381.98
2218,22472,44402.00
2219,22492,44422.01
2220,22512,44442.03
2221,22536,44462.05
2222,22560,44482.07
2223,22576,44502.09
2224,22600,44522.11
2225,22612,44542.13
2226,22628,44562.15
2227,22616,44582.17
2228,22552,44602.18
2229,22448,44622.20
2230,22336,44642.22
2231,22244,44662.24
2232,22196,44682.26
2233,22176,44702.28
2234,22184,44722.30
2235,22208,44742.32
2236,22236,44762.34
2237,22272,44782.36
2238,22312,44802.37
2239,22348,44822.39
2240,22380,44842.41
2241,22396,44862.43
2242,22404,44882.45
2243,22404,44902.47
2244,22404,44922.49
2245,22400,44942.51
2246,22400,44962.53
2247,22408,44982.54
2248,22424,45002.56
2249,22444,45022.58
2250,22468,45042.60
2251,22488,45062.62
2252,22512,45082.64
2253,22536,45102.66
2254,22560,45122.68
2255,22584,45142.70
2256,22604,45162.72
2257,22624,45182.73
2258,22644,45202.75
2259,22664,45222.77
2260,22680,45242.79
2261,22696,45262.81
2262,22664,45282.83
2263,22576,45302.85
2264,22456,45322.87
2265,22340,45342.89
2266,22252,45362.90
2267,22200,45382.92
2268,22188,45402.94
2269,22196,45422.96
2270,22220,45442.98
2271,22248,45463.00
2272,22284,45483.02
2273,22320,45503.04
2274,22352,45523.06
2275,22380,45543.07
2276,22396,45563.09
2277,22404,45583.11
2278,22400,45603.13
2279,22392,45623.15
2280,22384,45643.17
2281,22388,45663.19
2282,22392,45683.21
2283,22408,45703.23
2284,22424,45723.25
2285,22448,45743.26
2286,22472,45763.28
2287,22496,45783.30
2288,22520,45803.32
2289,22544,45823.34
2290,22568,45843.36
2291,22588,45863.38
2292,22608,45883.40
2293,22624,45903.42
2294,22644,45923.43
2295,22660,45943.45
2296,22676,45963.47
2297,22684,45983.49
2298,22648,46003.51
2299,22560,46023.53
2300,22444,46043.55
2301,22332,46063.57
2302,22248,46083.59
2303,22204,46103.61
2304,22188,46123.62
2305,22204,46143.64
2306,22232,46163.66
2307,22268,46183.68
2308,22304,46203.70
2309,22348,46223.72
2310,22376,46243.74
2311,22400,46263.76
2312,22404,46283.78
2313,22400,46303.79
2314,22400,46323.81
2315,22392,46343.83
2316,22384,46363.85
2317,22384,46383.87
2318,22396,46403.89
2319,22408,46423.91
2320,22428,46443.93
2321,22444,46463.95
2322,22468,46483.96
2323,22492,46503.98
2324,22520,46524.00
2325,22540,46544.02
2326,22560,46564.04
2327,22584,46584.06
2328,22604,46604.08
2329,22620,46624.10
2330,22636,46644.12
2331,22636,46664.14
2332,22588,46684.15
2333,22492,46704.17
2334,22380,46724.19
2335,22284,46744.21
2336,22224,46764.23
2337,22192,46784.25
2338,22196,46804.27
2339,22216,46824.29
2340,22244,46844.31
2341,22280,46864.32
2342,22324,46884.34
2343,22356,46904.36
2344,22384,46924.38
2345,22400,46944.40
2346,22408,46964.42
2347,22400,46984.44
2348,22388,47004.46
2349,22376,47024.48
2350,22372,47044.49
2351,22372,47064.51
2352,22376,47084.53
2353,22392,47104.55
2354,22408,47124.57
2355,22428,47144.59
2356,22448,47164.61
2357,22472,47184.63
2358,22496,47204.65
2359,22520,47224.67
2360,22540,47244.68
2361,22564,47264.70
2362,22584,47284.72
2363,22600,47304.74
2364,22576,47324.76
2365,22496,47344.78
2366,22384,47364.80
2367,22276,47384.82
2368,22200,47404.84
2369,22156,47424.85
2370,22152,47444.87
2371,22172,47464.89
2372,22196,47484.91
2373,22236,47504.93
2374,22268,47524.95
2375,22304,47544.97
2376,22336,47564.99
2377,22360,47585.01
2378,22372,47605.03
2379,22372,47625.04
2380,22364,47645.06
2381,22352,47665.08
2382,22348,47685.10
2383,22348,47705.12
2384,22356,47725.14
2385,22372,47745.16
2386,22392,47765.18
2387,22416,47785.20
2388,22432,47805.21
2389,22452,47825.23
2390,22476,47845.25
2391,22492,47865.27
2392,22520,47885.29
2393,22536,47905.31
2394,22560,47925.33
2395,22584,47945.35
2396,22584,47965.37
2397,22544,47985.38
2398,22444,48005.40
2399,22328,48025.42
2400,22220,48045.44
2401,22144,48065.46
2402,22112,48085.48
2403,22112,48105.50
2404,22128,48125.52
2405,22156,48145.54
2406,22196,48165.56
2407,22228,48185.57
2408,22260,48205.59
2409,22292,48225.61
2410,22308,48245.63
2411,22320,48265.65
2412,22320,48285.67
2413,22320,48305.69
2414,22312,48325.71
2415,22312,48345.73
2416,22316,48365.74
2417,22324,48385.76
2418,22340,48405.78
2419,22356,48425.80
2420,22376,48445.82
2421,22396,48465.84
2422,22412,48485.86
2423,22436,48505.88
2424,22456,48525.90
2425,22480,48545.91
2426,22500,48565.93
2427,22520,48585.95
2428,22536,48605.97
2429,22536,48625.99
2430,22476,48646.01
2431,22372,48666.03
2432,22248,48686.05
2433,22156,48706.07
2434,22088,48726.09
2435,22060,48746.10
2436,22064,48766.12
2437,22084,48786.14
2438,22112,48806.16
2439,22144,48826.18
2440,22180,48846.20
2441,22216,48866.22
2442,22240,48886.24
2443,22256,48906.26
2444,22272,48926.27
2445,22264,48946.29
2446,22264,48966.31
2447,22256,48986.33
2448,22256,49006.35
2449,22256,49026.37
2450,22268,49046.39
2451,22280,49066.41
2452,22304,49086.43
2453,22324,49106.45
2454,22348,49126.46
2455,22368,49146.48
2456,22388,49166.50
2457,22408,49186.52
2458,22428,49206.54
2459,22444,49226.56
2460,22460,49246.58
2461,22472,49266.60
2462,22444,49286.62
2463,22360,49306.63
2464,22248,49326.65
2465,22148,49346.67
2466,22076,49366.69
2467,22036,49386.71
2468,22032,49406.73
2469,22048,49426.75
2470,22076,49446.77
2471,22108,49466.79
2472,22148,49486.80
2473,22184,49506.82
2474,22220,49526.84
2475,22240,49546.86
2476,22248,49566.88
2477,22244,49586.90
2478,22236,49606.92
2479,22232,49626.94
2480,22232,49646.96
2481,22232,49666.98
2482,22244,49686.99
2483,22260,49707.01
2484,22280,49727.03
2485,22300,49747.05
2486,22324,49767.07
2487,22344,49787.09
2488,22368,49807.11
2489,22384,49827.13
2490,22404,49847.15
2491,22420,49867.16
2492,22440,49887.18
2493,22440,49907.20
2494,22384,49927.22
2495,22288,49947.24
2496,22172,49967.26
2497,22076,49987.28
2498,22016,50007.30
2499,21992,50027.32
2500,21984,50047.33
2501,22000,50067.35
2502,22024,50087.37
2503,22056,50107.39
2504,22088,50127.41
2505,22120,50147.43
2506,22144,50167.45
2507,22156,50187.47
2508,22160,50207.49
2509,22156,50227.51
2510,22148,50247.52
2511,22144,50267.54
2512,22148,50287.56
2513,22152,50307.58
2514,22168,50327.60
2515,22184,50347.62
2516,22204,50367.64
2517,22228,50387.66
2518,22252,50407.68
2519,22276,50427.69
2520,22296,50447.71
2521,22320,50467.73
2522,22340,50487.75
2523,22364,50507.77
2524,22380,50527.79
2525,22364,50547.81
2526,22288,50567.83
2527,22180,50587.85
2528,22076,50607.87
2529,21996,50627.88
2530,21956,50647.90
2531,21948,50667.92
2532,21964,50687.94
2533,21992,50707.96
2534,22020,50727.98
2535,22056,50748.00
2536,22096,50768.02
2537,22128,50788.04
2538,22148,50808.05
2539,22164,50828.07
2540,22168,50848.09
2541,22164,50868.11
2542,22156,50888.13
2543,22156,50908.15
2544,22156,50928.17
2545,22164,50948.19
2546,22176,50968.21
2547,22192,50988.22
2548,22212,51008.24
2549,22236,51028.26
2550,22260,51048.28
2551,22284,51068.30
2552,22304,51088.32
2553,22324,51108.34
2554,22344,51128.36
2555,22364,51148.38
2556,22380,51168.40
2557,22396,51188.41
2558,22384,51208.43
2559,22308,51228.45
2560,22196,51248.47
2561,22084,51268.49
2562,21996,51288.51
2563,21948,51308.53
2564,21936,51328.55
2565,21948,51348.57
2566,21976,51368.58
2567,22008,51388.60
2568,22048,51408.62
2569,22084,51428.64
2570,22116,51448.66
2571,22144,51468.68
2572,22160,51488.70
2573,22160,51508.72
2574,22160,51528.74
2575,22152,51548.76
2576,22148,51568.77
2577,22152,51588.79
2578,22160,51608.81
2579,22172,51628.83
2580,22192,51648.85
2581,22212,51668.87
2582,22232,51688.89
2583,22252,51708.91
2584,22276,51728.93
2585,22292,51748.94
2586,22312,51768.96
2587,22328,51788.98
2588,22344,51809.00
2589,22360,51829.02
2590,22380,51849.04
2591,22380,51869.06
2592,22332,51889.08
2593,22232,51909.10
2594,22120,51929.11
2595,22024,51949.13
2596,21960,51969.15
2597,21936,51989.17
2598,21944,52009.19
2599,21968,52029.21
2600,22004,52049.23
2601,22044,52069.25
2602,22084,52089.27
2603,22128,52109.29
2604,22152,52129.30
2605,22172,52149.32
2606,22176,52169.34
2607,22176,52189.36
2608,22168,52209.38
2609,22160,52229.40
2610,22168,52249.42
2611,22172,52269.44
2612,22184,52289.46
2613,22200,52309.47
2614,22220,52329.49
2615,22240,52349.51
2616,22264,52369.53
2617,22288,52389.55
2618,22308,52409.57
2619,22328,52429.59
2620,22348,52449.61
2621,22368,52469.63
2622,22384,52489.64
2623,22392,52509.66
2624,22356,52529.68
2625,22276,52549.70
2626,22160,52569.72
2627,22052,52589.74
2628,21976,52609.76
2629,21940,52629.78
2630,21940,52649.80
2631,21964,52669.82
2632,21988,52689.83
2633,22020,52709.85
2634,22060,52729.87
2635,22096,52749.89
2636,22124,52769.91
2637,22140,52789.93
2638,22148,52809.95
2639,22148,52829.97
2640,22140,52849.99
2641,22136,52870.00
2642,22136,52890.02
2643,22148,52910.04
2644,22156,52930.06
2645,22176,52950.08
2646,22196,52970.10
2647,22220,52990.12
2648,22240,53010.14
2649,22268,53030.16
2650,22292,53050.18
2651,22316,53070.19
2652,22340,53090.21
2653,22360,53110.23
2654,22380,53130.25
2655,22396,53150.27
2656,22396,53170.29
2657,22340,53190.31
2658,22236,53210.33
2659,22120,53230.35
2660,22024,53250.36
2661,21960,53270.38
2662,21932,53290.40
2663,21936,53310.42
2664,21960,53330.44
2665,21988,53350.46
2666,22020,53370.48
2667,22056,53390.50
2668,22088,53410.52
2669,22120,53430.53
2670,22136,53450.55
2671,22148,53470.57
2672,22144,53490.59
2673,22144,53510.61
2674,22136,53530.63
2675,22136,53550.65
2676,22144,53570.67
2677,22156,53590.69
2678,22180,53610.71
2679,22200,53630.72
2680,22224,53650.74
2681,22248,53670.76
2682,22272,53690.78
2683,22300,53710.80
2684,22320,53730.82
2685,22340,53750.84
2686,22364,53770.86
2687,22384,53790.88
2688,22404,53810.89
2689,22396,53830.91
2690,22328,53850.93
2691,22216,53870.95
2692,22100,53890.97
2693,22012,53910.99
2694,21964,53931.01
2695,21952,53951.03
2696,21960,53971.05
2697,21984,53991.06
2698,22020,54011.08
2699,22060,54031.10
2700,22100,54051.12
2701,22136,54071.14
2702,22156,54091.16
2703,22172,54111.18
2704,22172,54131.20
2705,22172,54151.22
2706,22160,54171.24
2707,22152,54191.25
2708,22148,54211.27
2709,22156,54231.29
2710,22172,54251.31
2711,22188,54271.33
2712,22208,54291.35
2713,22232,54311.37
2714,22248,54331.39
2715,22272,54351.41
2716,22292,54371.42
2717,22316,54391.44
2718,22336,54411.46
2719,22360,54431.48
2720,22376,54451.50
2721,22364,54471.52
2722,22288,54491.54
2723,22176,54511.56
2724,22068,54531.58
2725,21988,54551.60
2726,21952,54571.61
2727,21944,54591.63
2728,21960,54611.65
2729,21996,54631.67
2730,22032,54651.69
2731,22076,54671.71
2732,22120,54691.73
2733,22156,54711.75
2734,22184,54731.77
2735,22196,54751.78
2736,22200,54771.80
2737,22200,54791.82
2738,22188,54811.84
2739,22188,54831.86
2740,22188,54851.88
2741,22196,54871.90
2742,22208,54891.92
2743,22224,54911.94
2744,22244,54931.95
2745,22264,54951.97
2746,22284,54971.99
2747,22304,54992.01
2748,22332,55012.03
2749,22356,55032.05
2750,22376,55052.07
2751,22360,55072.09
2752,22288,55092.11
2753,22184,55112.13
2754,22080,55132.14
2755,22000,55152.16
2756,21960,55172.18
2757,21956,55192.20
2758,21976,55212.22
2759,22004,55232.24
2760,22044,55252.26
2761,22088,55272.28
2762,22132,55292.30
2763,22164,55312.31
2764,22188,55332.33
2765,22196,55352.35
2766,22192,55372.37
2767,22180,55392.39
2768,22168,55412.41
2769,22160,55432.43
2770,22164,55452.45
2771,22164,55472.47
2772,22176,55492.49
2773,22192,55512.50
2774,22212,55532.52
2775,22240,55552.54
2776,22272,55572.56
2777,22300,55592.58
2778,22332,55612.60
2779,22360,55632.62
2780,22348,55652.64
2781,22276,55672.66
2782,22164,55692.67
2783,22068,55712.69
2784,22000,55732.71
2785,21960,55752.73
2786,21960,55772.75
2787,21980,55792.77
2788,22012,55812.79
2789,22052,55832.81
2790,22096,55852.83
2791,22144,55872.84
2792,22184,55892.86
2793,22208,55912.88
2794,22220,55932.90
2795,22228,55952.92
2796,22228,55972.94
2797,22232,55992.96
2798,22240,56012.98
2799,22268,56033.00
2800,22296,56053.02
2801,22324,56073.03
2802,22344,56093.05
2803,22364,56113.07
2804,22380,56133.09
2805,22400,56153.11
2806,22420,56173.13
2807,22444,56193.15
2808,22464,56213.17
2809,22460,56233.19
2810,22396,56253.20
2811,22288,56273.22
2812,22176,56293.24
2813,22084,56313.26
2814,22028,56333.28
2815,22008,56353.30
2816,22008,56373.32
2817,22024,56393.34
2818,22052,56413.36
2819,22088,56433.37
2820,22120,56453.39
2821,22156,56473.41
2822,22180,56493.43
2823,22200,56513.45
2824,22200,56533.47
2825,22196,56553.49
2826,22188,56573.51
2827,22180,56593.53
2828,22180,56613.55
2829,22188,56633.56
2830,22196,56653.58
2831,22208,56673.60
2832,22228,56693.62
2833,22256,56713.64
2834,22276,56733.66
2835,22296,56753.68
2836,22320,56773.70
2837,22340,56793.72
2838,22352,56813.73
2839,22316,56833.75
2840,22224,56853.77
2841,22108,56873.79
2842,22016,56893.81
2843,21948,56913.83
2844,21920,56933.85
2845,21916,56953.87
2846,21940,56973.89
2847,21972,56993.91
2848,22004,57013.92
2849,22048,57033.94
2850,22088,57053.96
2851,22120,57073.98
2852,22140,57094.00
2853,22144,57114.02
2854,22144,57134.04
2855,22140,57154.06
2856,22136,57174.08
2857,22140,57194.09
2858,22148,57214.11
2859,22156,57234.13
2860,22176,57254.15
2861,22196,57274.17
2862,22220,57294.19
2863,22244,57314.21
2864,22268,57334.23
2865,22300,57354.25
2866,22328,57374.26
2867,22340,57394.28
2868,22300,57414.30
2869,22216,57434.32
2870,22112,57454.34
2871,22020,57474.36
2872,21964,57494.38
2873,21948,57514.40
2874,21964,57534.42
2875,21996,57554.44
2876,22040,57574.45
2877,22080,57594.47
2878,22120,57614.49
2879,22160,57634.51
2880,22188,57654.53
2881,22208,57674.55
2882,22208,57694.57
2883,22200,57714.59
2884,22200,57734.61
2885,22200,57754.62
2886,22212,57774.64
2887,22212,57794.66
2888,22216,57814.68
2889,22212,57834.70
2890,22212,57854.72
2891,22224,57874.74
2892,22240,57894.76
2893,22272,57914.78
2894,22296,57934.79
2895,22324,57954.81
2896,22328,57974.83
2897,22276,57994.85
2898,22180,58014.87
2899,22072,58034.89
2900,21984,58054.91
2901,21932,58074.93
2902,21912,58094.95
2903,21928,58114.97
2904,21952,58134.98
2905,21992,58155.00
2906,22032,58175.02
2907,22076,58195.04
2908,22108,58215.06
2909,22124,58235.08
2910,22132,58255.10
2911,22128,58275.12
2912,22128,58295.14
2913,22128,58315.15
2914,22144,58335.17
2915,22156,58355.19
2916,22176,58375.21
2917,22196,58395.23
2918,22220,58415.25
2919,22252,58435.27
2920,22276,58455.29
2921,22308,58475.31
2922,22344,58495.33
2923,22380,58515.34
2924,22416,58535.36
2925,22452,58555.38
2926,22452,58575.40
2927,22388,58595.42
2928,22284,58615.44
2929,22176,58635.46
2930,22096,58655.48
2931,22044,58675.50
2932,22036,58695.51
2933,22064,58715.53
2934,22104,58735.55
2935,22144,58755.57
2936,22184,58775.59
2937,22220,58795.61
2938,22256,58815.63
2939,22280,58835.65
2940,22292,58855.67
2941,22300,58875.68
2942,22300,58895.70
2943,22300,58915.72
2944,22296,58935.74
2945,22300,58955.76
2946,22312,58975.78
2947,22328,58995.80
2948,22348,59015.82
2949,22380,59035.84
2950,22416,59055.86
2951,22452,59075.87
2952,22480,59095.89
2953,22512,59115.91
2954,22540,59135.93
2955,22568,59155.95
2956,22576,59175.97
2957,22536,59195.99
2958,22448,59216.01
2959,22344,59236.03
2960,22264,59256.04
2961,22212,59276.06
2962,22196,59296.08
2963,22200,59316.10
2964,22224,59336.12
2965,22256,59356.14
2966,22292,59376.16
2967,22336,59396.18
2968,22376,59416.20
2969,22400,59436.22
2970,22416,59456.23
2971,22428,59476.25
2972,22436,59496.27
2973,22440,59516.29
2974,22444,59536.31
2975,22452,59556.33
2976,22460,59576.35
2977,22472,59596.37
2978,22488,59616.39
2979,22504,59636.40
2980,22524,59656.42
2981,22544,59676.44
2982,22568,59696.46
2983,22592,59716.48
2984,22620,59736.50
2985,22652,59756.52
2986,22664,59776.54
2987,22632,59796.56
2988,22560,59816.57
2989,22464,59836.59
2990,22380,59856.61
2991,22324,59876.63
2992,22300,59896.65
2993,22304,59916.67
2994,22324,59936.69
2995,22360,59956.71
2996,22396,59976.73
2997,22436,59996.75
2998,22480,60016.76
2999,22508,60036.78
