Sample_Index,IR_Value,Timestamp_ms
0,19948,0.00
1,19944,20.03
2,19964,40.06
3,19996,60.08
4,20040,80.11
5,20084,100.14
6,20120,120.17
7,20148,140.20
8,20168,160.23
9,20180,180.25
10,20184,200.28
11,20176,220.31
12,20176,240.34
13,20180,260.37
14,20180,280.40
15,20188,300.42
16,20192,320.45
17,20208,340.48
18,20224,360.51
19,20248,380.54
20,20276,400.57
21,20304,420.59
22,20344,440.62
23,20380,460.65
24,20388,480.68
25,20352,500.71
26,20256,520.74
27,20136,540.76
28,20024,560.79
29,19944,580.82
30,19904,600.85
31,19892,620.88
32,19912,640.91
33,19948,660.93
34,19996,680.96
35,20056,700.99
36,20112,721.02
37,20152,741.05
38,20172,761.08
39,20188,781.10
40,20196,801.13
41,20204,821.16
42,20208,841.19
43,20220,861.22
44,20236,881.25
45,20256,901.27
46,20280,921.30
47,20316,941.33
48,20344,961.36
49,20352,981.39
50,20368,1001.41
51,20404,1021.44
52,20452,1041.47
53,20500,1061.50
54,20508,1081.53
55,20472,1101.56
56,20400,1121.58
57,20320,1141.61
58,20256,1161.64
59,20228,1181.67
60,20236,1201.70
61,20264,1221.73
62,20308,1241.75
63,20340,1261.78
64,20368,1281.81
65,20396,1301.84
66,20412,1321.87
67,20416,1341.90
68,20428,1361.92
69,20436,1381.95
70,20444,1401.98
71,20456,1422.01
72,20468,1442.04
73,20484,1462.07
74,20504,1482.09
75,20532,1502.12
76,20564,1522.15
77,20596,1542.18
78,20628,1562.21
79,20664,1582.24
80,20692,1602.26
81,20716,1622.29
82,20744,1642.32
83,20752,1662.35
84,20732,1682.38
85,20676,1702.41
86,20600,1722.43
87,20524,1742.46
88,20468,1762.49
89,20452,1782.52
90,20456,1802.55
91,20472,1822.58
92,20504,1842.60
93,20548,1862.63
94,20596,1882.66
95,20652,1902.69
96,20700,1922.72
97,20728,1942.74
98,20740,1962.77
99,20744,1982.80
100,20740,2002.83
101,20744,2022.86
102,20752,2042.89
103,20764,2062.91
104,20780,2082.94
105,20796,2102.97
106,20812,2123.00
107,20836,2143.03
108,20856,2163.06
109,20872,2183.08
110,20900,2203.11
111,20924,2223.14
112,20944,2243.17
113,20960,2263.20
114,20944,2283.23
115,20908,2303.25
116,20860,2323.28
117,20808,2343.31
118,20768,2363.34
119,20748,2383.37
120,20744,2403.40
121,20756,2423.42
122,20780,2443.45
123,20808,2463.48
124,20844,2483.51
125,20876,2503.54
126,20904,2523.57
127,20932,2543.59
128,20948,2563.62
129,20960,2583.65
130,20968,2603.68
131,20976,2623.71
132,20980,2643.74
133,20996,2663.76
134,21012,2683.79
135,21032,2703.82
136,21052,2723.85
137,21076,2743.88
138,21100,2763.91
139,21124,2783.93
140,21148,2803.96
141,21172,2823.99
142,21200,2844.02
143,21224,2864.05
144,21240,2884.07
145,21228,2904.10
146,21188,2924.13
147,21136,2944.16
148,21080,2964.19
149,21040,2984.22
150,21016,3004.24
151,21008,3024.27
152,21008,3044.30
153,21020,3064.33
154,21036,3084.36
155,21056,3104.39
156,21080,3124.41
157,21096,3144.44
158,21112,3164.47
159,21120,3184.50
160,21124,3204.53
161,21120,3224.56
162,21128,3244.58
163,21136,3264.61
164,21144,3284.64
165,21160,3304.67
166,21168,3324.70
167,21184,3344.73
168,21200,3364.75
169,21212,3384.78
170,21228,3404.81
171,21248,3424.84
172,21260,3444.87
173,21280,3464.90
174,21292,3484.92
175,21308,3504.95
176,21324,3524.98
177,21336,3545.01
178,21336,3565.04
179,21316,3585.07
180,21268,3605.09
181,21212,3625.12
182,21156,3645.15
183,21116,3665.18
184,21092,3685.21
185,21080,3705.24
186,21080,3725.26
187,21084,3745.29
188,21092,3765.32
189,21104,3785.35
190,21120,3805.38
191,21132,3825.40
192,21140,3845.43
193,21140,3865.46
194,21140,3885.49
195,21140,3905.52
196,21136,3925.55
197,21136,3945.57
198,21148,3965.60
199,21152,3985.63
200,21164,4005.66
201,21176,4025.69
202,21188,4045.72
203,21200,4065.74
204,21212,4085.77
205,21228,4105.80
206,21244,4125.83
207,21260,4145.86
208,21272,4165.89
209,21284,4185.91
210,21300,4205.94
211,21312,4225.97
212,21320,4246.00
213,21336,4266.03
214,21336,4286.06
215,21316,4306.08
216,21268,4326.11
217,21212,4346.14
218,21160,4366.17
219,21124,4386.20
220,21104,4406.23
221,21100,4426.25
222,21100,4446.28
223,21104,4466.31
224,21120,4486.34
225,21128,4506.37
226,21144,4526.40
227,21156,4546.42
228,21164,4566.45
229,21164,4586.48
230,21160,4606.51
231,21156,4626.54
232,21152,4646.56
233,21152,4666.59
234,21152,4686.62
235,21156,4706.65
236,21168,4726.68
237,21172,4746.71
238,21180,4766.73
239,21192,4786.76
240,21196,4806.79
241,21208,4826.82
242,21216,4846.85
243,21228,4866.88
244,21240,4886.90
245,21252,4906.93
246,21264,4926.96
247,21272,4946.99
248,21284,4967.02
249,21296,4987.05
250,21296,5007.07
251,21272,5027.10
252,21228,5047.13
253,21168,5067.16
254,21100,5087.19
255,21052,5107.22
256,21016,5127.24
257,21008,5147.27
258,21004,5167.30
259,21008,5187.33
260,21016,5207.36
261,21032,5227.39
262,21048,5247.41
263,21056,5267.44
264,21064,5287.47
265,21072,5307.50
266,21072,5327.53
267,21064,5347.56
268,21064,5367.58
269,21064,5387.61
270,21064,5407.64
271,21068,5427.67
272,21076,5447.70
273,21084,5467.73
274,21096,5487.75
275,21100,5507.78
276,21116,5527.81
277,21128,5547.84
278,21144,5567.87
279,21156,5587.89
280,21168,5607.92
281,21180,5627.95
282,21192,5647.98
283,21200,5668.01
284,21212,5688.04
285,21224,5708.06
286,21232,5728.09
287,21216,5748.12
288,21168,5768.15
289,21108,5788.18
290,21028,5808.21
291,20960,5828.23
292,20904,5848.26
293,20872,5868.29
294,20856,5888.32
295,20852,5908.35
296,20856,5928.38
297,20868,5948.40
298,20880,5968.43
299,20896,5988.46
300,20904,6008.49
301,20912,6028.52
302,20912,6048.55
303,20904,6068.57
304,20904,6088.60
305,20904,6108.63
306,20908,6128.66
307,20916,6148.69
308,20924,6168.72
309,20936,6188.74
310,20948,6208.77
311,20964,6228.80
312,20980,6248.83
313,20992,6268.86
314,21004,6288.89
315,21020,6308.91
316,21040,6328.94
317,21056,6348.97
318,21068,6369.00
319,21084,6389.03
320,21104,6409.06
321,21120,6429.08
322,21120,6449.11
323,21096,6469.14
324,21040,6489.17
325,20964,6509.20
326,20884,6529.22
327,20820,6549.25
328,20772,6569.28
329,20748,6589.31
330,20744,6609.34
331,20756,6629.37
332,20768,6649.39
333,20792,6669.42
334,20820,6689.45
335,20844,6709.48
336,20856,6729.51
337,20864,6749.54
338,20864,6769.56
339,20860,6789.59
340,20856,6809.62
341,20860,6829.65
342,20864,6849.68
343,20876,6869.71
344,20892,6889.73
345,20912,6909.76
346,20928,6929.79
347,20948,6949.82
348,20964,6969.85
349,20980,6989.88
350,20992,7009.90
351,21016,7029.93
352,21032,7049.96
353,21048,7069.99
354,21068,7090.02
355,21084,7110.05
356,21100,7130.07
357,21112,7150.10
358,21092,7170.13
359,21032,7190.16
360,20952,7210.19
361,20868,7230.22
362,20800,7250.24
363,20752,7270.27
364,20736,7290.30
365,20736,7310.33
366,20756,7330.36
367,20780,7350.39
368,20816,7370.41
369,20848,7390.44
370,20872,7410.47
371,20892,7430.50
372,20900,7450.53
373,20904,7470.55
374,20900,7490.58
375,20900,7510.61
376,20904,7530.64
377,20912,7550.67
378,20916,7570.70
379,20928,7590.72
380,20948,7610.75
381,20968,7630.78
382,20984,7650.81
383,21004,7670.84
384,21020,7690.87
385,21040,7710.89
386,21056,7730.92
387,21068,7750.95
388,21088,7770.98
389,21104,7791.01
390,21120,7811.04
391,21128,7831.06
392,21112,7851.09
393,21060,7871.12
394,20980,7891.15
395,20892,7911.18
396,20808,7931.21
397,20748,7951.23
398,20724,7971.26
399,20720,7991.29
400,20732,8011.32
401,20756,8031.35
402,20788,8051.38
403,20828,8071.40
404,20852,8091.43
405,20876,8111.46
406,20884,8131.49
407,20888,8151.52
408,20880,8171.55
409,20876,8191.57
410,20872,8211.60
411,20876,8231.63
412,20884,8251.66
413,20896,8271.69
414,20912,8291.72
415,20936,8311.74
416,20960,8331.77
417,20972,8351.80
418,20992,8371.83
419,21012,8391.86
420,21036,8411.88
421,21056,8431.91
422,21076,8451.94
423,21096,8471.97
424,21100,8492.00
425,21072,8512.03
426,21008,8532.05
427,20916,8552.08
428,20824,8572.11
429,20748,8592.14
430,20704,8612.17
431,20688,8632.20
432,20692,8652.22
433,20716,8672.25
434,20748,8692.28
435,20788,8712.31
436,20824,8732.34
437,20856,8752.37
438,20876,8772.39
439,20880,8792.42
440,20876,8812.45
441,20868,8832.48
442,20860,8852.51
443,20864,8872.54
444,20868,8892.56
445,20876,8912.59
446,20892,8932.62
447,20904,8952.65
448,20920,8972.68
449,20940,8992.71
450,20952,9012.73
451,20968,9032.76
452,20988,9052.79
453,21008,9072.82
454,21028,9092.85
455,21028,9112.88
456,20988,9132.90
457,20908,9152.93
458,20804,9172.96
459,20712,9192.99
460,20640,9213.02
461,20608,9233.05
462,20600,9253.07
463,20612,9273.10
464,20640,9293.13
465,20676,9313.16
466,20712,9333.19
467,20748,9353.21
468,20776,9373.24
469,20784,9393.27
470,20784,9413.30
471,20776,9433.33
472,20772,9453.36
473,20764,9473.38
474,20764,9493.41
475,20772,9513.44
476,20784,9533.47
477,20804,9553.50
478,20820,9573.53
479,20844,9593.55
480,20860,9613.58
481,20880,9633.61
482,20900,9653.64
483,20920,9673.67
484,20932,9693.70
485,20912,9713.72
486,20848,9733.75
487,20744,9753.78
488,20632,9773.81
489,20540,9793.84
490,20484,9813.87
491,20468,9833.89
492,20472,9853.92
493,20500,9873.95
494,20532,9893.98
495,20572,9914.01
496,20608,9934.04
497,20632,9954.06
498,20652,9974.09
499,20652,9994.12
500,20644,10014.15
501,20620,10034.18
502,20600,10054.21
503,20580,10074.23
504,20568,10094.26
505,20568,10114.29
506,20572,10134.32
507,20584,10154.35
508,20604,10174.38
509,20620,10194.40
510,20644,10214.43
511,20668,10234.46
512,20696,10254.49
513,20720,10274.52
514,20720,10294.54
515,20668,10314.57
516,20572,10334.60
517,20460,10354.63
518,20356,10374.66
519,20284,10394.69
520,20256,10414.71
521,20256,10434.74
522,20280,10454.77
523,20312,10474.80
524,20352,10494.83
525,20404,10514.86
526,20440,10534.88
527,20464,10554.91
528,20476,10574.94
529,20480,10594.97
530,20472,10615.00
531,20464,10635.03
532,20460,10655.05
533,20460,10675.08
534,20468,10695.11
535,20480,10715.14
536,20496,10735.17
537,20516,10755.20
538,20536,10775.22
539,20560,10795.25
540,20584,10815.28
541,20604,10835.31
542,20588,10855.34
543,20528,10875.37
544,20428,10895.39
545,20312,10915.42
546,20224,10935.45
547,20172,10955.48
548,20152,10975.51
549,20160,10995.54
550,20184,11015.56
551,20212,11035.59
552,20264,11055.62
553,20308,11075.65
554,20344,11095.68
555,20364,11115.71
556,20368,11135.73
557,20372,11155.76
558,20368,11175.79
559,20364,11195.82
560,20368,11215.85
561,20384,11235.87
562,20396,11255.90
563,20416,11275.93
564,20436,11295.96
565,20456,11315.99
566,20480,11336.02
567,20500,11356.04
568,20524,11376.07
569,20532,11396.10
570,20492,11416.13
571,20408,11436.16
572,20304,11456.19
573,20204,11476.21
574,20136,11496.24
575,20108,11516.27
576,20108,11536.30
577,20124,11556.33
578,20156,11576.36
579,20192,11596.38
580,20232,11616.41
581,20268,11636.44
582,20296,11656.47
583,20304,11676.50
584,20300,11696.53
585,20288,11716.55
586,20284,11736.58
587,20280,11756.61
588,20284,11776.64
589,20292,11796.67
590,20308,11816.70
591,20328,11836.72
592,20344,11856.75
593,20368,11876.78
594,20388,11896.81
595,20408,11916.84
596,20424,11936.87
597,20408,11956.89
598,20344,11976.92
599,20240,11996.95
600,20132,12016.98
601,20048,12037.01
602,20004,12057.03
603,19992,12077.06
604,20008,12097.09
605,20036,12117.12
606,20068,12137.15
607,20112,12157.18
608,20152,12177.20
609,20184,12197.23
610,20200,12217.26
611,20208,12237.29
612,20204,12257.32
613,20196,12277.35
614,20192,12297.37
615,20196,12317.40
616,20208,12337.43
617,20224,12357.46
618,20244,12377.49
619,20264,12397.52
620,20288,12417.54
621,20312,12437.57
622,20336,12457.60
623,20360,12477.63
624,20388,12497.66
625,20392,12517.69
626,20352,12537.71
627,20264,12557.74
628,20144,12577.77
629,20044,12597.80
630,19980,12617.83
631,19960,12637.86
632,19968,12657.88
633,19988,12677.91
634,20020,12697.94
635,20060,12717.97
636,20100,12738.00
637,20136,12758.03
638,20164,12778.05
639,20180,12798.08
640,20184,12818.11
641,20180,12838.14
642,20172,12858.17
643,20172,12878.20
644,20184,12898.22
645,20200,12918.25
646,20216,12938.28
647,20244,12958.31
648,20268,12978.34
649,20296,12998.36
650,20324,13018.39
651,20348,13038.42
652,20372,13058.45
653,20396,13078.48
654,20416,13098.51
655,20436,13118.53
656,20456,13138.56
657,20476,13158.59
658,20468,13178.62
659,20400,13198.65
660,20288,13218.68
661,20160,13238.70
662,20056,13258.73
663,19996,13278.76
664,19980,13298.79
665,19992,13318.82
666,20016,13338.85
667,20052,13358.87
668,20084,13378.90
669,20128,13398.93
670,20160,13418.96
671,20180,13438.99
672,20188,13459.02
673,20184,13479.04
674,20176,13499.07
675,20172,13519.10
676,20168,13539.13
677,20180,13559.16
678,20196,13579.19
679,20212,13599.21
680,20236,13619.24
681,20256,13639.27
682,20280,13659.30
683,20304,13679.33
684,20328,13699.36
685,20352,13719.38
686,20372,13739.41
687,20392,13759.44
688,20408,13779.47
689,20424,13799.50
690,20440,13819.53
691,20456,13839.55
692,20468,13859.58
693,20484,13879.61
694,20496,13899.64
695,20500,13919.67
696,20452,13939.69
697,20348,13959.72
698,20212,13979.75
699,20092,13999.78
700,20020,14019.81
701,19988,14039.84
702,19988,14059.86
703,20008,14079.89
704,20040,14099.92
705,20076,14119.95
706,20116,14139.98
707,20148,14160.01
708,20176,14180.03
709,20192,14200.06
710,20196,14220.09
711,20192,14240.12
712,20184,14260.15
713,20188,14280.18
714,20192,14300.20
715,20212,14320.23
716,20232,14340.26
717,20260,14360.29
718,20284,14380.32
719,20312,14400.35
720,20340,14420.37
721,20368,14440.40
722,20396,14460.43
723,20420,14480.46
724,20440,14500.49
725,20460,14520.52
726,20480,14540.54
727,20496,14560.57
728,20508,14580.60
729,20528,14600.63
730,20544,14620.66
731,20560,14640.69
732,20580,14660.71
733,20588,14680.74
734,20548,14700.77
735,20444,14720.80
736,20316,14740.83
737,20200,14760.86
738,20124,14780.88
739,20092,14800.91
740,20092,14820.94
741,20112,14840.97
742,20144,14861.00
743,20176,14881.02
744,20212,14901.05
745,20252,14921.08
746,20284,14941.11
747,20296,14961.14
748,20300,14981.17
749,20292,15001.19
750,20284,15021.22
751,20280,15041.25
752,20284,15061.28
753,20296,15081.31
754,20312,15101.34
755,20332,15121.36
756,20356,15141.39
757,20384,15161.42
758,20408,15181.45
759,20432,15201.48
760,20460,15221.51
761,20484,15241.53
762,20508,15261.56
763,20528,15281.59
764,20544,15301.62
765,20560,15321.65
766,20564,15341.68
767,20576,15361.70
768,20592,15381.73
769,20604,15401.76
770,20624,15421.79
771,20624,15441.82
772,20568,15461.85
773,20460,15481.87
774,20328,15501.90
775,20200,15521.93
776,20116,15541.96
777,20080,15561.99
778,20080,15582.02
779,20096,15602.04
780,20124,15622.07
781,20160,15642.10
782,20204,15662.13
783,20240,15682.16
784,20268,15702.19
785,20284,15722.21
786,20288,15742.24
787,20280,15762.27
788,20268,15782.30
789,20264,15802.33
790,20260,15822.35
791,20272,15842.38
792,20288,15862.41
793,20312,15882.44
794,20336,15902.47
795,20364,15922.50
796,20392,15942.52
797,20420,15962.55
798,20448,15982.58
799,20476,16002.61
800,20500,16022.64
801,20524,16042.67
802,20544,16062.69
803,20564,16082.72
804,20584,16102.75
805,20600,16122.78
806,20620,16142.81
807,20636,16162.84
808,20612,16182.86
809,20528,16202.89
810,20396,16222.92
811,20268,16242.95
812,20168,16262.98
813,20116,16283.01
814,20104,16303.03
815,20120,16323.06
816,20148,16343.09
817,20184,16363.12
818,20228,16383.15
819,20276,16403.18
820,20312,16423.20
821,20336,16443.23
822,20352,16463.26
823,20348,16483.29
824,20336,16503.32
825,20324,16523.35
826,20320,16543.37
827,20324,16563.40
828,20336,16583.43
829,20352,16603.46
830,20380,16623.49
831,20400,16643.52
832,20424,16663.54
833,20452,16683.57
834,20476,16703.60
835,20504,16723.63
836,20532,16743.66
837,20556,16763.68
838,20572,16783.71
839,20592,16803.74
840,20616,16823.77
841,20636,16843.80
842,20640,16863.83
843,20584,16883.85
844,20472,16903.88
845,20336,16923.91
846,20216,16943.94
847,20140,16963.97
848,20108,16984.00
849,20112,17004.02
850,20136,17024.05
851,20172,17044.08
852,20216,17064.11
853,20264,17084.14
854,20308,17104.17
855,20340,17124.19
856,20360,17144.22
857,20372,17164.25
858,20364,17184.28
859,20356,17204.31
860,20348,17224.34
861,20352,17244.36
862,20356,17264.39
863,20372,17284.42
864,20392,17304.45
865,20412,17324.48
866,20440,17344.51
867,20464,17364.53
868,20496,17384.56
869,20520,17404.59
870,20552,17424.62
871,20572,17444.65
872,20600,17464.68
873,20628,17484.70
874,20652,17504.73
875,20660,17524.76
876,20616,17544.79
877,20504,17564.82
878,20360,17584.85
879,20236,17604.87
880,20144,17624.90
881,20100,17644.93
882,20092,17664.96
883,20112,17684.99
884,20144,17705.01
885,20184,17725.04
886,20228,17745.07
887,20276,17765.10
888,20316,17785.13
889,20340,17805.16
890,20344,17825.18
891,20344,17845.21
892,20332,17865.24
893,20324,17885.27
894,20320,17905.30
895,20328,17925.33
896,20340,17945.35
897,20360,17965.38
898,20388,17985.41
899,20416,18005.44
900,20448,18025.47
901,20472,18045.50
902,20504,18065.52
903,20536,18085.55
904,20568,18105.58
905,20600,18125.61
906,20624,18145.64
907,20608,18165.67
908,20536,18185.69
909,20408,18205.72
910,20272,18225.75
911,20164,18245.78
912,20100,18265.81
913,20080,18285.84
914,20088,18305.86
915,20112,18325.89
916,20144,18345.92
917,20184,18365.95
918,20236,18385.98
919,20276,18406.01
920,20308,18426.03
921,20324,18446.06
922,20328,18466.09
923,20320,18486.12
924,20304,18506.15
925,20296,18526.18
926,20296,18546.20
927,20300,18566.23
928,20316,18586.26
929,20332,18606.29
930,20360,18626.32
931,20380,18646.34
932,20404,18666.37
933,20428,18686.40
934,20456,18706.43
935,20484,18726.46
936,20504,18746.49
937,20524,18766.51
938,20512,18786.54
939,20428,18806.57
940,20296,18826.60
941,20164,18846.63
942,20048,18866.66
943,19988,18886.68
944,19964,18906.71
945,19972,18926.74
946,20000,18946.77
947,20036,18966.80
948,20072,18986.83
949,20120,19006.85
950,20160,19026.88
951,20192,19046.91
952,20208,19066.94
953,20212,19086.97
954,20204,19107.00
955,20196,19127.02
956,20192,19147.05
957,20200,19167.08
958,20212,19187.11
959,20232,19207.14
960,20264,19227.17
961,20292,19247.19
962,20320,19267.22
963,20348,19287.25
964,20372,19307.28
965,20400,19327.31
966,20424,19347.34
967,20448,19367.36
968,20472,19387.39
969,20496,19407.42
970,20500,19427.45
971,20456,19447.48
972,20340,19467.51
973,20192,19487.53
974,20052,19507.56
975,19960,19527.59
976,19920,19547.62
977,19908,19567.65
978,19924,19587.67
979,19952,19607.70
980,19984,19627.73
981,20024,19647.76
982,20068,19667.79
983,20104,19687.82
984,20128,19707.84
985,20136,19727.87
986,20132,19747.90
987,20124,19767.93
988,20116,19787.96
989,20116,19807.99
990,20128,19828.01
991,20140,19848.04
992,20164,19868.07
993,20188,19888.10
994,20220,19908.13
995,20244,19928.16
996,20272,19948.18
997,20296,19968.21
998,20316,19988.24
999,20344,20008.27
1000,20364,20028.30
1001,20384,20048.33
1002,20404,20068.35
1003,20416,20088.38
1004,20376,20108.41
1005,20268,20128.44
1006,20120,20148.47
1007,19988,20168.50
1008,19888,20188.52
1009,19840,20208.55
1010,19828,20228.58
1011,19844,20248.61
1012,19872,20268.64
1013,19900,20288.67
1014,19940,20308.69
1015,19976,20328.72
1016,20012,20348.75
1017,20036,20368.78
1018,20048,20388.81
1019,20044,20408.83
1020,20040,20428.86
1021,20028,20448.89
1022,20028,20468.92
1023,20036,20488.95
1024,20056,20508.98
1025,20076,20529.00
1026,20096,20549.03
1027,20124,20569.06
1028,20148,20589.09
1029,20180,20609.12
1030,20204,20629.15
1031,20228,20649.17
1032,20256,20669.20
1033,20280,20689.23
1034,20300,20709.26
1035,20320,20729.29
1036,20340,20749.32
1037,20348,20769.34
1038,20308,20789.37
1039,20200,20809.40
1040,20056,20829.43
1041,19928,20849.46
1042,19836,20869.49
1043,19796,20889.51
1044,19796,20909.54
1045,19816,20929.57
1046,19852,20949.60
1047,19888,20969.63
1048,19932,20989.66
1049,19980,21009.68
1050,20016,21029.71
1051,20044,21049.74
1052,20060,21069.77
1053,20064,21089.80
1054,20056,21109.83
1055,20056,21129.85
1056,20056,21149.88
1057,20068,21169.91
1058,20084,21189.94
1059,20108,21209.97
1060,20136,21230.00
1061,20164,21250.02
1062,20196,21270.05
1063,20224,21290.08
1064,20252,21310.11
1065,20280,21330.14
1066,20312,21350.16
1067,20336,21370.19
1068,20364,21390.22
1069,20388,21410.25
1070,20416,21430.28
1071,20432,21450.31
1072,20424,21470.33
1073,20348,21490.36
1074,20212,21510.39
1075,20068,21530.42
1076,19952,21550.45
1077,19888,21570.48
1078,19868,21590.50
1079,19880,21610.53
1080,19912,21630.56
1081,19956,21650.59
1082,20004,21670.62
1083,20056,21690.65
1084,20100,21710.67
1085,20140,21730.70
1086,20152,21750.73
1087,20156,21770.76
1088,20148,21790.79
1089,20140,21810.82
1090,20144,21830.84
1091,20152,21850.87
1092,20168,21870.90
1093,20192,21890.93
1094,20216,21910.96
1095,20244,21930.99
1096,20272,21951.01
1097,20304,21971.04
1098,20336,21991.07
1099,20356,22011.10
1100,20388,22031.13
1101,20416,22051.16
1102,20440,22071.18
1103,20464,22091.21
1104,20496,22111.24
1105,20516,22131.27
1106,20512,22151.30
1107,20448,22171.33
1108,20316,22191.35
1109,20168,22211.38
1110,20040,22231.41
1111,19964,22251.44
1112,19936,22271.47
1113,19944,22291.49
1114,19968,22311.52
1115,20008,22331.55
1116,20048,22351.58
1117,20100,22371.61
1118,20140,22391.64
1119,20176,22411.66
1120,20192,22431.69
1121,20192,22451.72
1122,20188,22471.75
1123,20176,22491.78
1124,20172,22511.81
1125,20172,22531.83
1126,20184,22551.86
1127,20196,22571.89
1128,20220,22591.92
1129,20244,22611.95
1130,20268,22631.98
1131,20300,22652.00
1132,20324,22672.03
1133,20352,22692.06
1134,20376,22712.09
1135,20400,22732.12
1136,20420,22752.15
1137,20448,22772.17
1138,20468,22792.20
1139,20480,22812.23
1140,20428,22832.26
1141,20308,22852.29
1142,20164,22872.32
1143,20040,22892.34
1144,19964,22912.37
1145,19932,22932.40
1146,19940,22952.43
1147,19972,22972.46
1148,20008,22992.49
1149,20056,23012.51
1150,20112,23032.54
1151,20164,23052.57
1152,20204,23072.60
1153,20224,23092.63
1154,20232,23112.66
1155,20232,23132.68
1156,20220,23152.71
1157,20212,23172.74
1158,20212,23192.77
1159,20224,23212.80
1160,20236,23232.82
1161,20264,23252.85
1162,20288,23272.88
1163,20316,23292.91
1164,20344,23312.94
1165,20372,23332.97
1166,20396,23352.99
1167,20420,23373.02
1168,20440,23393.05
1169,20464,23413.08
1170,20496,23433.11
1171,20520,23453.14
1172,20512,23473.16
1173,20440,23493.19
1174,20304,23513.22
1175,20164,23533.25
1176,20052,23553.28
1177,19988,23573.31
1178,19968,23593.33
1179,19984,23613.36
1180,20020,23633.39
1181,20060,23653.42
1182,20112,23673.45
1183,20164,23693.48
1184,20212,23713.50
1185,20248,23733.53
1186,20264,23753.56
1187,20260,23773.59
1188,20256,23793.62
1189,20248,23813.65
1190,20240,23833.67
1191,20244,23853.70
1192,20260,23873.73
1193,20276,23893.76
1194,20300,23913.79
1195,20328,23933.82
1196,20356,23953.84
1197,20384,23973.87
1198,20412,23993.90
1199,20440,24013.93
1200,20468,24033.96
1201,20500,24053.99
1202,20532,24074.01
1203,20560,24094.04
1204,20552,24114.07
1205,20472,24134.10
1206,20332,24154.13
1207,20192,24174.15
1208,20084,24194.18
1209,20028,24214.21
1210,20012,24234.24
1211,20032,24254.27
1212,20072,24274.30
1213,20116,24294.32
1214,20172,24314.35
1215,20228,24334.38
1216,20276,24354.41
1217,20308,24374.44
1218,20320,24394.47
1219,20316,24414.49
1220,20304,24434.52
1221,20300,24454.55
1222,20300,24474.58
1223,20300,24494.61
1224,20316,24514.64
1225,20336,24534.66
1226,20360,24554.69
1227,20384,24574.72
1228,20412,24594.75
1229,20436,24614.78
1230,20464,24634.81
1231,20492,24654.83
1232,20520,24674.86
1233,20552,24694.89
1234,20572,24714.92
1235,20544,24734.95
1236,20448,24754.98
1237,20308,24775.00
1238,20176,24795.03
1239,20080,24815.06
1240,20032,24835.09
1241,20024,24855.12
1242,20040,24875.15
1243,20080,24895.17
1244,20128,24915.20
1245,20180,24935.23
1246,20232,24955.26
1247,20276,24975.29
1248,20296,24995.32
1249,20300,25015.34
1250,20292,25035.37
1251,20284,25055.40
1252,20276,25075.43
1253,20276,25095.46
1254,20284,25115.48
1255,20300,25135.51
1256,20320,25155.54
1257,20340,25175.57
1258,20360,25195.60
1259,20388,25215.63
1260,20412,25235.65
1261,20440,25255.68
1262,20468,25275.71
1263,20500,25295.74
1264,20520,25315.77
1265,20492,25335.80
1266,20392,25355.82
1267,20256,25375.85
1268,20120,25395.88
1269,20024,25415.91
1270,19968,25435.94
1271,19956,25455.97
1272,19976,25475.99
1273,20012,25496.02
1274,20052,25516.05
1275,20104,25536.08
1276,20152,25556.11
1277,20188,25576.14
1278,20208,25596.16
1279,20212,25616.19
1280,20204,25636.22
1281,20196,25656.25
1282,20188,25676.28
1283,20196,25696.31
1284,20196,25716.33
1285,20216,25736.36
1286,20240,25756.39
1287,20264,25776.42
1288,20288,25796.45
1289,20320,25816.48
1290,20344,25836.50
1291,20376,25856.53
1292,20404,25876.56
1293,20428,25896.59
1294,20436,25916.62
1295,20384,25936.65
1296,20272,25956.67
1297,20140,25976.70
1298,20028,25996.73
1299,19956,26016.76
1300,19932,26036.79
1301,19936,26056.81
1302,19960,26076.84
1303,20000,26096.87
1304,20044,26116.90
1305,20096,26136.93
1306,20136,26156.96
1307,20172,26176.98
1308,20188,26197.01
1309,20192,26217.04
1310,20184,26237.07
1311,20172,26257.10
1312,20168,26277.13
1313,20168,26297.15
1314,20180,26317.18
1315,20192,26337.21
1316,20212,26357.24
1317,20232,26377.27
1318,20248,26397.30
1319,20272,26417.32
1320,20296,26437.35
1321,20324,26457.38
1322,20344,26477.41
1323,20336,26497.44
1324,20280,26517.47
1325,20172,26537.49
1326,20052,26557.52
1327,19952,26577.55
1328,19892,26597.58
1329,19872,26617.61
1330,19876,26637.64
1331,19904,26657.66
1332,19940,26677.69
1333,19992,26697.72
1334,20044,26717.75
1335,20084,26737.78
1336,20112,26757.81
1337,20128,26777.83
1338,20120,26797.86
1339,20112,26817.89
1340,20096,26837.92
1341,20092,26857.95
1342,20096,26877.98
1343,20108,26898.00
1344,20124,26918.03
1345,20148,26938.06
1346,20172,26958.09
1347,20200,26978.12
1348,20228,26998.14
1349,20256,27018.17
1350,20276,27038.20
1351,20268,27058.23
1352,20208,27078.26
1353,20096,27098.29
1354,19980,27118.31
1355,19888,27138.34
1356,19828,27158.37
1357,19812,27178.40
1358,19816,27198.43
1359,19844,27218.46
1360,19884,27238.48
1361,19932,27258.51
1362,19980,27278.54
1363,20020,27298.57
1364,20040,27318.60
1365,20044,27338.63
1366,20036,27358.65
1367,20016,27378.68
1368,20008,27398.71
1369,20004,27418.74
1370,20004,27438.77
1371,20020,27458.80
1372,20040,27478.82
1373,20064,27498.85
1374,20092,27518.88
1375,20120,27538.91
1376,20144,27558.94
1377,20168,27578.97
1378,20176,27598.99
1379,20136,27619.02
1380,20044,27639.05
1381,19932,27659.08
1382,19832,27679.11
1383,19776,27699.14
1384,19756,27719.16
1385,19764,27739.19
1386,19796,27759.22
1387,19832,27779.25
1388,19880,27799.28
1389,19932,27819.30
1390,19972,27839.33
1391,20008,27859.36
1392,20028,27879.39
1393,20036,27899.42
1394,20036,27919.45
1395,20040,27939.47
1396,20052,27959.50
1397,20068,27979.53
1398,20092,27999.56
1399,20120,28019.59
1400,20156,28039.62
1401,20188,28059.64
1402,20224,28079.67
1403,20260,28099.70
1404,20296,28119.73
1405,20328,28139.76
1406,20360,28159.79
1407,20372,28179.81
1408,20340,28199.84
1409,20256,28219.87
1410,20164,28239.90
1411,20088,28259.93
1412,20044,28279.96
1413,20036,28299.98
1414,20052,28320.01
1415,20076,28340.04
1416,20112,28360.07
1417,20148,28380.10
1418,20192,28400.13
1419,20236,28420.15
1420,20268,28440.18
1421,20292,28460.21
1422,20316,28480.24
1423,20328,28500.27
1424,20344,28520.30
1425,20356,28540.32
1426,20376,28560.35
1427,20404,28580.38
1428,20432,28600.41
1429,20464,28620.44
1430,20500,28640.47
1431,20540,28660.49
1432,20580,28680.52
1433,20620,28700.55
1434,20656,28720.58
1435,20696,28740.61
1436,20732,28760.63
1437,20768,28780.66
1438,20804,28800.69
1439,20836,28820.72
1440,20872,28840.75
1441,20904,28860.78
1442,20900,28880.80
1443,20856,28900.83
1444,20792,28920.86
1445,20724,28940.89
1446,20672,28960.92
1447,20648,28980.95
1448,20644,29000.97
1449,20652,29021.00
1450,20672,29041.03
1451,20692,29061.06
1452,20720,29081.09
1453,20752,29101.12
1454,20780,29121.14
1455,20808,29141.17
1456,20832,29161.20
1457,20852,29181.23
1458,20876,29201.26
1459,20892,29221.29
1460,20908,29241.31
1461,20928,29261.34
1462,20952,29281.37
1463,20972,29301.40
1464,21000,29321.43
1465,21028,29341.46
1466,21056,29361.48
1467,21084,29381.51
1468,21112,29401.54
1469,21140,29421.57
1470,21168,29441.60
1471,21196,29461.63
1472,21224,29481.65
1473,21252,29501.68
1474,21276,29521.71
1475,21304,29541.74
1476,21324,29561.77
1477,21344,29581.80
1478,21368,29601.82
1479,21392,29621.85
1480,21412,29641.88
1481,21404,29661.91
1482,21384,29681.94
1483,21352,29701.96
1484,21320,29721.99
1485,21300,29742.02
1486,21292,29762.05
1487,21296,29782.08
1488,21300,29802.11
1489,21312,29822.13
1490,21320,29842.16
1491,21336,29862.19
1492,21352,29882.22
1493,21368,29902.25
1494,21384,29922.28
1495,21392,29942.30
1496,21408,29962.33
1497,21412,29982.36
1498,21420,30002.39
1499,21436,30022.42
1500,21448,30042.45
1501,21460,30062.47
1502,21476,30082.50
1503,21492,30102.53
1504,21508,30122.56
1505,21524,30142.59
1506,21544,30162.62
1507,21556,30182.64
1508,21576,30202.67
1509,21592,30222.70
1510,21608,30242.73
1511,21624,30262.76
1512,21636,30282.79
1513,21648,30302.81
1514,21664,30322.84
1515,21680,30342.87
1516,21688,30362.90
1517,21700,30382.93
1518,21716,30402.96
1519,21728,30422.98
1520,21744,30443.01
1521,21760,30463.04
1522,21772,30483.07
1523,21768,30503.10
1524,21756,30523.13
1525,21728,30543.15
1526,21712,30563.18
1527,21704,30583.21
1528,21700,30603.24
1529,21708,30623.27
1530,21712,30643.29
1531,21724,30663.32
1532,21732,30683.35
1533,21744,30703.38
1534,21756,30723.41
1535,21768,30743.44
1536,21776,30763.46
1537,21784,30783.49
1538,21788,30803.52
1539,21796,30823.55
1540,21804,30843.58
1541,21808,30863.61
1542,21820,30883.63
1543,21828,30903.66
1544,21844,30923.69
1545,21856,30943.72
1546,21864,30963.75
1547,21876,30983.78
1548,21892,31003.80
1549,21904,31023.83
1550,21912,31043.86
1551,21928,31063.89
1552,21940,31083.92
1553,21944,31103.95
1554,21956,31123.97
1555,21968,31144.00
1556,21980,31164.03
1557,21988,31184.06
1558,22004,31204.09
1559,22012,31224.12
1560,22024,31244.14
1561,22036,31264.17
1562,22048,31284.20
1563,22060,31304.23
1564,22072,31324.26
1565,22076,31344.29
1566,22076,31364.31
1567,22068,31384.34
1568,22044,31404.37
1569,22036,31424.40
1570,22036,31444.43
1571,22040,31464.46
1572,22048,31484.48
1573,22060,31504.51
1574,22072,31524.54
1575,22080,31544.57
1576,22088,31564.60
1577,22100,31584.62
1578,22108,31604.65
1579,22112,31624.68
1580,22116,31644.71
1581,22124,31664.74
1582,22120,31684.77
1583,22128,31704.79
1584,22136,31724.82
1585,22144,31744.85
1586,22156,31764.88
1587,22160,31784.91
1588,22172,31804.94
1589,22184,31824.96
1590,22196,31844.99
1591,22204,31865.02
1592,22212,31885.05
1593,22220,31905.08
1594,22232,31925.11
1595,22240,31945.13
1596,22252,31965.16
1597,22260,31985.19
1598,22268,32005.22
1599,22276,32025.25
1600,22284,32045.28
1601,22296,32065.30
1602,22304,32085.33
1603,22312,32105.36
1604,22320,32125.39
1605,22328,32145.42
1606,22336,32165.45
1607,22344,32185.47
1608,22356,32205.50
1609,22360,32225.53
1610,22352,32245.56
1611,22344,32265.59
1612,22336,32285.62
1613,22328,32305.64
1614,22336,32325.67
1615,22344,32345.70
1616,22352,32365.73
1617,22364,32385.76
1618,22368,32405.79
1619,22376,32425.81
1620,22380,32445.84
1621,22388,32465.87
1622,22392,32485.90
1623,22400,32505.93
1624,22404,32525.95
1625,22404,32545.98
1626,22408,32566.01
1627,22412,32586.04
1628,22420,32606.07
1629,22428,32626.10
1630,22432,32646.12
1631,22440,32666.15
1632,22448,32686.18
1633,22448,32706.21
1634,22456,32726.24
1635,22464,32746.27
1636,22472,32766.29
1637,22480,32786.32
1638,22484,32806.35
1639,22492,32826.38
1640,22500,32846.41
1641,22508,32866.44
1642,22512,32886.46
1643,22516,32906.49
1644,22524,32926.52
1645,22528,32946.55
1646,22536,32966.58
1647,22544,32986.61
1648,22552,33006.63
1649,22556,33026.66
1650,22564,33046.69
1651,22572,33066.72
1652,22568,33086.75
1653,22556,33106.78
1654,22548,33126.80
1655,22540,33146.83
1656,22540,33166.86
1657,22548,33186.89
1658,22556,33206.92
1659,22568,33226.95
1660,22576,33246.97
1661,22584,33267.00
1662,22596,33287.03
1663,22600,33307.06
1664,22608,33327.09
1665,22612,33347.12
1666,22616,33367.14
1667,22616,33387.17
1668,22616,33407.20
1669,22616,33427.23
1670,22620,33447.26
1671,22624,33467.28
1672,22624,33487.31
1673,22632,33507.34
1674,22636,33527.37
1675,22640,33547.40
1676,22640,33567.43
1677,22648,33587.45
1678,22652,33607.48
1679,22660,33627.51
1680,22664,33647.54
1681,22672,33667.57
1682,22672,33687.60
1683,22676,33707.62
1684,22680,33727.65
1685,22684,33747.68
1686,22688,33767.71
1687,22688,33787.74
1688,22696,33807.77
1689,22700,33827.79
1690,22708,33847.82
1691,22712,33867.85
1692,22716,33887.88
1693,22708,33907.91
1694,22700,33927.94
1695,22684,33947.96
1696,22680,33967.99
1697,22684,33988.02
1698,22688,34008.05
1699,22696,34028.08
1700,22704,34048.11
1701,22712,34068.13
1702,22720,34088.16
1703,22728,34108.19
1704,22736,34128.22
1705,22740,34148.25
1706,22748,34168.28
1707,22744,34188.30
1708,22744,34208.33
1709,22744,34228.36
1710,22744,34248.39
1711,22744,34268.42
1712,22748,34288.45
1713,22752,34308.47
1714,22760,34328.50
1715,22764,34348.53
1716,22764,34368.56
1717,22776,34388.59
1718,22776,34408.61
1719,22780,34428.64
1720,22784,34448.67
1721,22788,34468.70
1722,22792,34488.73
1723,22792,34508.76
1724,22792,34528.78
1725,22792,34548.81
1726,22792,34568.84
1727,22792,34588.87
1728,22796,34608.90
1729,22800,34628.93
1730,22804,34648.95
1731,22796,34668.98
1732,22784,34689.01
1733,22772,34709.04
1734,22756,34729.07
1735,22748,34749.10
1736,22744,34769.12
1737,22748,34789.15
1738,22752,34809.18
1739,22756,34829.21
1740,22764,34849.24
1741,22768,34869.27
1742,22776,34889.29
1743,22776,34909.32
1744,22780,34929.35
1745,22780,34949.38
1746,22780,34969.41
1747,22776,34989.44
1748,22772,35009.46
1749,22772,35029.49
1750,22776,35049.52
1751,22780,35069.55
1752,22780,35089.58
1753,22780,35109.61
1754,22784,35129.63
1755,22788,35149.66
1756,22792,35169.69
1757,22796,35189.72
1758,22800,35209.75
1759,22800,35229.78
1760,22804,35249.80
1761,22804,35269.83
1762,22808,35289.86
1763,22808,35309.89
1764,22812,35329.92
1765,22812,35349.94
1766,22816,35369.97
1767,22804,35390.00
1768,22788,35410.03
1769,22768,35430.06
1770,22748,35450.09
1771,22736,35470.11
1772,22728,35490.14
1773,22724,35510.17
1774,22720,35530.20
1775,22720,35550.23
1776,22716,35570.26
1777,22720,35590.28
1778,22720,35610.31
1779,22720,35630.34
1780,22720,35650.37
1781,22716,35670.40
1782,22708,35690.43
1783,22704,35710.45
1784,22696,35730.48
1785,22688,35750.51
1786,22688,35770.54
1787,22684,35790.57
1788,22676,35810.60
1789,22680,35830.62
1790,22680,35850.65
1791,22680,35870.68
1792,22680,35890.71
1793,22680,35910.74
1794,22684,35930.77
1795,22684,35950.79
1796,22684,35970.82
1797,22688,35990.85
1798,22688,36010.88
1799,22688,36030.91
1800,22676,36050.94
1801,22652,36070.96
1802,22628,36090.99
1803,22604,36111.02
1804,22580,36131.05
1805,22568,36151.08
1806,22560,36171.10
1807,22556,36191.13
1808,22556,36211.16
1809,22556,36231.19
1810,22556,36251.22
1811,22556,36271.25
1812,22556,36291.27
1813,22548,36311.30
1814,22540,36331.33
1815,22532,36351.36
1816,22520,36371.39
1817,22512,36391.42
1818,22504,36411.44
1819,22500,36431.47
1820,22496,36451.50
1821,22496,36471.53
1822,22492,36491.56
1823,22484,36511.59
1824,22488,36531.61
1825,22484,36551.64
1826,22480,36571.67
1827,22480,36591.70
1828,22480,36611.73
1829,22480,36631.76
1830,22484,36651.78
1831,22468,36671.81
1832,22444,36691.84
1833,22412,36711.87
1834,22380,36731.90
1835,22352,36751.93
1836,22328,36771.95
1837,22316,36791.98
1838,22308,36812.01
1839,22304,36832.04
1840,22304,36852.07
1841,22304,36872.10
1842,22304,36892.12
1843,22304,36912.15
1844,22304,36932.18
1845,22292,36952.21
1846,22284,36972.24
1847,22272,36992.27
1848,22264,37012.29
1849,22260,37032.32
1850,22256,37052.35
1851,22252,37072.38
1852,22252,37092.41
1853,22248,37112.43
1854,22252,37132.46
1855,22256,37152.49
1856,22256,37172.52
1857,22260,37192.55
1858,22264,37212.58
1859,22264,37232.60
1860,22260,37252.63
1861,22236,37272.66
1862,22204,37292.69
1863,22168,37312.72
1864,22132,37332.75
1865,22108,37352.77
1866,22092,37372.80
1867,22080,37392.83
1868,22080,37412.86
1869,22080,37432.89
1870,22084,37452.92
1871,22088,37472.94
1872,22088,37492.97
1873,22084,37513.00
1874,22076,37533.03
1875,22068,37553.06
1876,22056,37573.09
1877,22044,37593.11
1878,22036,37613.14
1879,22032,37633.17
1880,22032,37653.20
1881,22032,37673.23
1882,22036,37693.26
1883,22036,37713.28
1884,22036,37733.31
1885,22040,37753.34
1886,22044,37773.37
1887,22044,37793.40
1888,22040,37813.43
1889,22028,37833.45
1890,21992,37853.48
1891,21948,37873.51
1892,21908,37893.54
1893,21876,37913.57
1894,21856,37933.60
1895,21844,37953.62
1896,21840,37973.65
1897,21840,37993.68
1898,21844,38013.71
1899,21848,38033.74
1900,21856,38053.76
1901,21856,38073.79
1902,21860,38093.82
1903,21852,38113.85
1904,21844,38133.88
1905,21836,38153.91
1906,21832,38173.93
1907,21832,38193.96
1908,21832,38213.99
1909,21836,38234.02
1910,21840,38254.05
1911,21840,38274.08
1912,21848,38294.10
1913,21852,38314.13
1914,21864,38334.16
1915,21872,38354.19
1916,21876,38374.22
1917,21864,38394.25
1918,21836,38414.27
1919,21792,38434.30
1920,21740,38454.33
1921,21692,38474.36
1922,21668,38494.39
1923,21644,38514.42
1924,21636,38534.44
1925,21628,38554.47
1926,21632,38574.50
1927,21640,38594.53
1928,21652,38614.56
1929,21656,38634.59
1930,21656,38654.61
1931,21652,38674.64
1932,21644,38694.67
1933,21640,38714.70
1934,21636,38734.73
1935,21632,38754.76
1936,21632,38774.78
1937,21640,38794.81
1938,21648,38814.84
1939,21652,38834.87
1940,21660,38854.90
1941,21672,38874.93
1942,21680,38894.95
1943,21692,38914.98
1944,21704,38935.01
1945,21712,38955.04
1946,21720,38975.07
1947,21712,38995.09
1948,21676,39015.12
1949,21624,39035.15
1950,21568,39055.18
1951,21520,39075.21
1952,21488,39095.24
1953,21468,39115.26
1954,21464,39135.29
1955,21460,39155.32
1956,21464,39175.35
1957,21468,39195.38
1958,21472,39215.41
1959,21484,39235.43
1960,21492,39255.46
1961,21492,39275.49
1962,21488,39295.52
1963,21484,39315.55
1964,21480,39335.58
1965,21480,39355.60
1966,21480,39375.63
1967,21488,39395.66
1968,21496,39415.69
1969,21504,39435.72
1970,21512,39455.75
1971,21520,39475.77
1972,21528,39495.80
1973,21536,39515.83
1974,21544,39535.86
1975,21548,39555.89
1976,21560,39575.92
1977,21564,39595.94
1978,21576,39615.97
1979,21584,39636.00
1980,21588,39656.03
1981,21596,39676.06
1982,21588,39696.09
1983,21552,39716.11
1984,21496,39736.14
1985,21424,39756.17
1986,21356,39776.20
1987,21320,39796.23
1988,21292,39816.26
1989,21284,39836.28
1990,21276,39856.31
1991,21276,39876.34
1992,21280,39896.37
1993,21284,39916.40
1994,21292,39936.42
1995,21296,39956.45
1996,21304,39976.48
1997,21304,39996.51
1998,21300,40016.54
1999,21300,40036.57
2000,21296,40056.59
2001,21300,40076.62
2002,21308,40096.65
2003,21316,40116.68
2004,21332,40136.71
2005,21340,40156.74
2006,21356,40176.76
2007,21368,40196.79
2008,21380,40216.82
2009,21396,40236.85
2010,21404,40256.88
2011,21416,40276.91
2012,21432,40296.93
2013,21440,40316.96
2014,21456,40336.99
2015,21464,40357.02
2016,21472,40377.05
2017,21480,40397.08
2018,21488,40417.10
2019,21496,40437.13
2020,21508,40457.16
2021,21516,40477.19
2022,21524,40497.22
2023,21536,40517.25
2024,21536,40537.27
2025,21528,40557.30
2026,21484,40577.33
2027,21408,40597.36
2028,21332,40617.39
2029,21264,40637.42
2030,21216,40657.44
2031,21192,40677.47
2032,21172,40697.50
2033,21164,40717.53
2034,21160,40737.56
2035,21156,40757.59
2036,21160,40777.61
2037,21168,40797.64
2038,21176,40817.67
2039,21180,40837.70
2040,21176,40857.73
2041,21172,40877.75
2042,21172,40897.78
2043,21172,40917.81
2044,21172,40937.84
2045,21184,40957.87
2046,21192,40977.90
2047,21208,40997.92
2048,21224,41017.95
2049,21240,41037.98
2050,21252,41058.01
2051,21268,41078.04
2052,21288,41098.07
2053,21296,41118.09
2054,21312,41138.12
2055,21328,41158.15
2056,21336,41178.18
2057,21352,41198.21
2058,21360,41218.24
2059,21372,41238.26
2060,21380,41258.29
2061,21392,41278.32
2062,21408,41298.35
2063,21420,41318.38
2064,21432,41338.41
2065,21448,41358.43
2066,21460,41378.46
2067,21472,41398.49
2068,21480,41418.52
2069,21464,41438.55
2070,21408,41458.58
2071,21332,41478.60
2072,21244,41498.63
2073,21172,41518.66
2074,21124,41538.69
2075,21104,41558.72
2076,21096,41578.75
2077,21100,41598.77
2078,21104,41618.80
2079,21108,41638.83
2080,21120,41658.86
2081,21136,41678.89
2082,21156,41698.92
2083,21160,41718.94
2084,21164,41738.97
2085,21164,41759.00
2086,21164,41779.03
2087,21164,41799.06
2088,21172,41819.08
2089,21184,41839.11
2090,21196,41859.14
2091,21212,41879.17
2092,21232,41899.20
2093,21252,41919.23
2094,21272,41939.25
2095,21288,41959.28
2096,21308,41979.31
2097,21320,41999.34
2098,21340,42019.37
2099,21352,42039.40
2100,21364,42059.42
2101,21376,42079.45
2102,21388,42099.48
2103,21404,42119.51
2104,21416,42139.54
2105,21428,42159.57
2106,21444,42179.59
2107,21456,42199.62
2108,21468,42219.65
2109,21484,42239.68
2110,21492,42259.71
2111,21504,42279.74
2112,21516,42299.76
2113,21512,42319.79
2114,21472,42339.82
2115,21408,42359.85
2116,21328,42379.88
2117,21252,42399.91
2118,21200,42419.93
2119,21164,42439.96
2120,21152,42459.99
2121,21152,42480.02
2122,21156,42500.05
2123,21160,42520.08
2124,21168,42540.10
2125,21180,42560.13
2126,21188,42580.16
2127,21196,42600.19
2128,21200,42620.22
2129,21200,42640.25
2130,21200,42660.27
2131,21200,42680.30
2132,21204,42700.33
2133,21212,42720.36
2134,21224,42740.39
2135,21240,42760.41
2136,21256,42780.44
2137,21276,42800.47
2138,21292,42820.50
2139,21312,42840.53
2140,21328,42860.56
2141,21344,42880.58
2142,21360,42900.61
2143,21376,42920.64
2144,21392,42940.67
2145,21408,42960.70
2146,21420,42980.73
2147,21432,43000.75
2148,21448,43020.78
2149,21460,43040.81
2150,21472,43060.84
2151,21484,43080.87
2152,21496,43100.90
2153,21508,43120.92
2154,21524,43140.95
2155,21540,43160.98
2156,21548,43181.01
2157,21544,43201.04
2158,21508,43221.07
2159,21436,43241.09
2160,21372,43261.12
2161,21308,43281.15
2162,21268,43301.18
2163,21248,43321.21
2164,21240,43341.24
2165,21252,43361.26
2166,21260,43381.29
2167,21280,43401.32
2168,21300,43421.35
2169,21320,43441.38
2170,21332,43461.41
2171,21336,43481.43
2172,21336,43501.46
2173,21336,43521.49
2174,21328,43541.52
2175,21324,43561.55
2176,21328,43581.57
2177,21332,43601.60
2178,21340,43621.63
2179,21352,43641.66
2180,21368,43661.69
2181,21380,43681.72
2182,21396,43701.74
2183,21416,43721.77
2184,21428,43741.80
2185,21444,43761.83
2186,21456,43781.86
2187,21476,43801.89
2188,21484,43821.91
2189,21492,43841.94
2190,21504,43861.97
2191,21520,43882.00
2192,21524,43902.03
2193,21536,43922.06
2194,21544,43942.08
2195,21556,43962.11
2196,21544,43982.14
2197,21504,44002.17
2198,21444,44022.20
2199,21372,44042.23
2200,21312,44062.25
2201,21272,44082.28
2202,21252,44102.31
2203,21248,44122.34
2204,21252,44142.37
2205,21268,44162.40
2206,21284,44182.42
2207,21304,44202.45
2208,21324,44222.48
2209,21336,44242.51
2210,21344,44262.54
2211,21344,44282.57
2212,21340,44302.59
2213,21336,44322.62
2214,21332,44342.65
2215,21332,44362.68
2216,21340,44382.71
2217,21348,44402.74
2218,21356,44422.76
2219,21376,44442.79
2220,21392,44462.82
2221,21412,44482.85
2222,21428,44502.88
2223,21444,44522.90
2224,21460,44542.93
2225,21472,44562.96
2226,21484,44582.99
2227,21492,44603.02
2228,21504,44623.05
2229,21520,44643.07
2230,21528,44663.10
2231,21532,44683.13
2232,21508,44703.16
2233,21452,44723.19
2234,21376,44743.22
2235,21300,44763.24
2236,21240,44783.27
2237,21204,44803.30
2238,21188,44823.33
2239,21184,44843.36
2240,21192,44863.39
2241,21204,44883.41
2242,21220,44903.44
2243,21240,44923.47
2244,21252,44943.50
2245,21272,44963.53
2246,21280,44983.56
2247,21284,45003.58
2248,21280,45023.61
2249,21280,45043.64
2250,21276,45063.67
2251,21280,45083.70
2252,21284,45103.73
2253,21296,45123.75
2254,21316,45143.78
2255,21328,45163.81
2256,21348,45183.84
2257,21368,45203.87
2258,21388,45223.90
2259,21404,45243.92
2260,21424,45263.95
2261,21440,45283.98
2262,21456,45304.01
2263,21472,45324.04
2264,21488,45344.07
2265,21500,45364.09
2266,21512,45384.12
2267,21508,45404.15
2268,21480,45424.18
2269,21408,45444.21
2270,21320,45464.23
2271,21232,45484.26
2272,21168,45504.29
2273,21124,45524.32
2274,21112,45544.35
2275,21108,45564.38
2276,21120,45584.40
2277,21132,45604.43
2278,21140,45624.46
2279,21160,45644.49
2280,21172,45664.52
2281,21184,45684.55
2282,21196,45704.57
2283,21196,45724.60
2284,21196,45744.63
2285,21192,45764.66
2286,21192,45784.69
2287,21196,45804.72
2288,21208,45824.74
2289,21216,45844.77
2290,21236,45864.80
2291,21256,45884.83
2292,21272,45904.86
2293,21296,45924.89
2294,21312,45944.91
2295,21336,45964.94
2296,21352,45984.97
2297,21372,46005.00
2298,21392,46025.03
2299,21408,46045.06
2300,21428,46065.08
2301,21440,46085.11
2302,21440,46105.14
2303,21408,46125.17
2304,21340,46145.20
2305,21244,46165.23
2306,21156,46185.25
2307,21092,46205.28
2308,21048,46225.31
2309,21036,46245.34
2310,21040,46265.37
2311,21052,46285.40
2312,21068,46305.42
2313,21092,46325.45
2314,21120,46345.48
2315,21136,46365.51
2316,21152,46385.54
2317,21160,46405.56
2318,21168,46425.59
2319,21168,46445.62
2320,21168,46465.65
2321,21172,46485.68
2322,21176,46505.71
2323,21188,46525.73
2324,21204,46545.76
2325,21220,46565.79
2326,21236,46585.82
2327,21260,46605.85
2328,21280,46625.88
2329,21300,46645.90
2330,21324,46665.93
2331,21336,46685.96
2332,21356,46705.99
2333,21372,46726.02
2334,21388,46746.05
2335,21404,46766.07
2336,21416,46786.10
2337,21420,46806.13
2338,21396,46826.16
2339,21328,46846.19
2340,21236,46866.22
2341,21140,46886.24
2342,21068,46906.27
2343,21024,46926.30
2344,21004,46946.33
2345,21008,46966.36
2346,21028,46986.39
2347,21048,47006.41
2348,21076,47026.44
2349,21104,47046.47
2350,21132,47066.50
2351,21160,47086.53
2352,21176,47106.56
2353,21184,47126.58
2354,21180,47146.61
2355,21176,47166.64
2356,21176,47186.67
2357,21180,47206.70
2358,21188,47226.73
2359,21200,47246.75
2360,21212,47266.78
2361,21236,47286.81
2362,21252,47306.84
2363,21272,47326.87
2364,21292,47346.89
2365,21312,47366.92
2366,21324,47386.95
2367,21344,47406.98
2368,21368,47427.01
2369,21380,47447.04
2370,21392,47467.06
2371,21380,47487.09
2372,21332,47507.12
2373,21244,47527.15
2374,21152,47547.18
2375,21068,47567.21
2376,21012,47587.23
2377,20988,47607.26
2378,20988,47627.29
2379,21004,47647.32
2380,21028,47667.35
2381,21056,47687.38
2382,21088,47707.40
2383,21112,47727.43
2384,21136,47747.46
2385,21148,47767.49
2386,21144,47787.52
2387,21144,47807.55
2388,21136,47827.57
2389,21136,47847.60
2390,21136,47867.63
2391,21144,47887.66
2392,21156,47907.69
2393,21180,47927.72
2394,21200,47947.74
2395,21220,47967.77
2396,21240,47987.80
2397,21264,48007.83
2398,21280,48027.86
2399,21300,48047.89
2400,21316,48067.91
2401,21336,48087.94
2402,21352,48107.97
2403,21368,48128.00
2404,21376,48148.03
2405,21348,48168.06
2406,21272,48188.08
2407,21160,48208.11
2408,21040,48228.14
2409,20948,48248.17
2410,20892,48268.20
2411,20864,48288.22
2412,20868,48308.25
2413,20884,48328.28
2414,20908,48348.31
2415,20936,48368.34
2416,20972,48388.37
2417,21000,48408.39
2418,21020,48428.42
2419,21032,48448.45
2420,21036,48468.48
2421,21028,48488.51
2422,21024,48508.54
2423,21020,48528.56
2424,21024,48548.59
2425,21028,48568.62
2426,21040,48588.65
2427,21052,48608.68
2428,21072,48628.71
2429,21092,48648.73
2430,21108,48668.76
2431,21128,48688.79
2432,21152,48708.82
2433,21168,48728.85
2434,21176,48748.88
2435,21188,48768.90
2436,21200,48788.93
2437,21204,48808.96
2438,21168,48828.99
2439,21088,48849.02
2440,20972,48869.05
2441,20852,48889.07
2442,20756,48909.10
2443,20704,48929.13
2444,20684,48949.16
2445,20684,48969.19
2446,20704,48989.22
2447,20736,49009.24
2448,20764,49029.27
2449,20796,49049.30
2450,20828,49069.33
2451,20848,49089.36
2452,20864,49109.39
2453,20868,49129.41
2454,20864,49149.44
2455,20864,49169.47
2456,20868,49189.50
2457,20876,49209.53
2458,20892,49229.55
2459,20908,49249.58
2460,20932,49269.61
2461,20960,49289.64
2462,20984,49309.67
2463,21012,49329.70
2464,21040,49349.72
2465,21064,49369.75
2466,21092,49389.78
2467,21116,49409.81
2468,21140,49429.84
2469,21168,49449.87
2470,21192,49469.89
2471,21196,49489.92
2472,21156,49509.95
2473,21064,49529.98
2474,20948,49550.01
2475,20840,49570.04
2476,20764,49590.06
2477,20732,49610.09
2478,20724,49630.12
2479,20736,49650.15
2480,20764,49670.18
2481,20800,49690.21
2482,20840,49710.23
2483,20888,49730.26
2484,20924,49750.29
2485,20952,49770.32
2486,20964,49790.35
2487,20964,49810.38
2488,20956,49830.40
2489,20952,49850.43
2490,20952,49870.46
2491,20960,49890.49
2492,20968,49910.52
2493,20984,49930.55
2494,21004,49950.57
2495,21024,49970.60
2496,21044,49990.63
2497,21064,50010.66
2498,21088,50030.69
2499,21112,50050.72
2500,21136,50070.74
2501,21156,50090.77
2502,21180,50110.80
2503,21196,50130.83
2504,21208,50150.86
2505,21184,50170.88
2506,21096,50190.91
2507,20980,50210.94
2508,20852,50230.97
2509,20760,50251.00
2510,20708,50271.03
2511,20696,50291.05
2512,20708,50311.08
2513,20736,50331.11
2514,20772,50351.14
2515,20812,50371.17
2516,20852,50391.20
2517,20888,50411.22
2518,20916,50431.25
2519,20924,50451.28
2520,20920,50471.31
2521,20912,50491.34
2522,20908,50511.37
2523,20904,50531.39
2524,20912,50551.42
2525,20920,50571.45
2526,20932,50591.48
2527,20952,50611.51
2528,20972,50631.54
2529,20992,50651.56
2530,21012,50671.59
2531,21032,50691.62
2532,21056,50711.65
2533,21076,50731.68
2534,21100,50751.71
2535,21124,50771.73
2536,21144,50791.76
2537,21148,50811.79
2538,21100,50831.82
2539,20996,50851.85
2540,20876,50871.88
2541,20772,50891.90
2542,20704,50911.93
2543,20668,50931.96
2544,20672,50951.99
2545,20692,50972.02
2546,20720,50992.05
2547,20764,51012.07
2548,20808,51032.10
2549,20852,51052.13
2550,20876,51072.16
2551,20892,51092.19
2552,20896,51112.21
2553,20884,51132.24
2554,20872,51152.27
2555,20864,51172.30
2556,20864,51192.33
2557,20872,51212.36
2558,20884,51232.38
2559,20900,51252.41
2560,20924,51272.44
2561,20952,51292.47
2562,20976,51312.50
2563,21000,51332.53
2564,21024,51352.55
2565,21044,51372.58
2566,21064,51392.61
2567,21084,51412.64
2568,21108,51432.67
2569,21112,51452.70
2570,21068,51472.72
2571,20972,51492.75
2572,20852,51512.78
2573,20740,51532.81
2574,20664,51552.84
2575,20636,51572.87
2576,20640,51592.89
2577,20660,51612.92
2578,20692,51632.95
2579,20732,51652.98
2580,20780,51673.01
2581,20824,51693.04
2582,20848,51713.06
2583,20864,51733.09
2584,20860,51753.12
2585,20852,51773.15
2586,20844,51793.18
2587,20832,51813.21
2588,20840,51833.23
2589,20844,51853.26
2590,20864,51873.29
2591,20880,51893.32
2592,20908,51913.35
2593,20928,51933.37
2594,20956,51953.40
2595,20980,51973.43
2596,21008,51993.46
2597,21036,52013.49
2598,21060,52033.52
2599,21088,52053.54
2600,21100,52073.57
2601,21076,52093.60
2602,20992,52113.63
2603,20872,52133.66
2604,20752,52153.69
2605,20664,52173.71
2606,20620,52193.74
2607,20612,52213.77
2608,20628,52233.80
2609,20656,52253.83
2610,20700,52273.86
2611,20744,52293.88
2612,20788,52313.91
2613,20824,52333.94
2614,20844,52353.97
2615,20848,52374.00
2616,20840,52394.03
2617,20832,52414.05
2618,20824,52434.08
2619,20824,52454.11
2620,20824,52474.14
2621,20832,52494.17
2622,20848,52514.20
2623,20868,52534.22
2624,20888,52554.25
2625,20916,52574.28
2626,20944,52594.31
2627,20968,52614.34
2628,20992,52634.37
2629,21016,52654.39
2630,21036,52674.42
2631,21036,52694.45
2632,20988,52714.48
2633,20884,52734.51
2634,20764,52754.54
2635,20664,52774.56
2636,20600,52794.59
2637,20576,52814.62
2638,20576,52834.65
2639,20600,52854.68
2640,20636,52874.70
2641,20676,52894.73
2642,20716,52914.76
2643,20752,52934.79
2644,20776,52954.82
2645,20784,52974.85
2646,20780,52994.87
2647,20776,53014.90
2648,20764,53034.93
2649,20760,53054.96
2650,20764,53074.99
2651,20776,53095.02
2652,20796,53115.04
2653,20824,53135.07
2654,20848,53155.10
2655,20868,53175.13
2656,20892,53195.16
2657,20912,53215.19
2658,20932,53235.21
2659,20956,53255.24
2660,20980,53275.27
2661,20996,53295.30
2662,20976,53315.33
2663,20896,53335.36
2664,20784,53355.38
2665,20676,53375.41
2666,20596,53395.44
2667,20560,53415.47
2668,20560,53435.50
2669,20584,53455.53
2670,20616,53475.55
2671,20668,53495.58
2672,20716,53515.61
2673,20764,53535.64
2674,20800,53555.67
2675,20824,53575.70
2676,20828,53595.72
2677,20816,53615.75
2678,20804,53635.78
2679,20792,53655.81
2680,20792,53675.84
2681,20792,53695.87
2682,20796,53715.89
2683,20804,53735.92
2684,20820,53755.95
2685,20836,53775.98
2686,20852,53796.01
2687,20876,53816.03
2688,20896,53836.06
2689,20920,53856.09
2690,20940,53876.12
2691,20940,53896.15
2692,20884,53916.18
2693,20788,53936.20
2694,20680,53956.23
2695,20596,53976.26
2696,20544,53996.29
2697,20532,54016.32
2698,20544,54036.35
2699,20572,54056.37
2700,20612,54076.40
2701,20660,54096.43
2702,20704,54116.46
2703,20744,54136.49
2704,20764,54156.52
2705,20764,54176.54
2706,20756,54196.57
2707,20748,54216.60
2708,20744,54236.63
2709,20748,54256.66
2710,20760,54276.69
2711,20776,54296.71
2712,20792,54316.74
2713,20812,54336.77
2714,20840,54356.80
2715,20864,54376.83
2716,20892,54396.86
2717,20916,54416.88
2718,20940,54436.91
2719,20960,54456.94
2720,20940,54476.97
2721,20860,54497.00
2722,20744,54517.03
2723,20628,54537.05
2724,20536,54557.08
2725,20492,54577.11
2726,20484,54597.14
2727,20500,54617.17
2728,20528,54637.20
2729,20568,54657.22
2730,20612,54677.25
2731,20652,54697.28
2732,20688,54717.31
2733,20708,54737.34
2734,20712,54757.36
2735,20704,54777.39
2736,20704,54797.42
2737,20700,54817.45
2738,20704,54837.48
2739,20716,54857.51
2740,20732,54877.53
2741,20752,54897.56
2742,20780,54917.59
2743,20804,54937.62
2744,20828,54957.65
2745,20856,54977.68
2746,20880,54997.70
2747,20908,55017.73
2748,20912,55037.76
2749,20872,55057.79
2750,20776,55077.82
2751,20648,55097.85
2752,20540,55117.87
2753,20468,55137.90
2754,20444,55157.93
2755,20444,55177.96
2756,20464,55197.99
2757,20492,55218.02
2758,20532,55238.04
2759,20572,55258.07
2760,20604,55278.10
2761,20632,55298.13
2762,20644,55318.16
2763,20644,55338.19
2764,20640,55358.21
2765,20636,55378.24
2766,20636,55398.27
2767,20640,55418.30
2768,20656,55438.33
2769,20672,55458.36
2770,20692,55478.38
2771,20716,55498.41
2772,20740,55518.44
2773,20768,55538.47
2774,20792,55558.50
2775,20824,55578.53
2776,20852,55598.55
2777,20864,55618.58
2778,20836,55638.61
2779,20744,55658.64
2780,20624,55678.67
2781,20508,55698.69
2782,20436,55718.72
2783,20404,55738.75
2784,20404,55758.78
2785,20424,55778.81
2786,20452,55798.84
2787,20488,55818.86
2788,20528,55838.89
2789,20568,55858.92
2790,20592,55878.95
2791,20608,55898.98
2792,20604,55919.01
2793,20596,55939.03
2794,20588,55959.06
2795,20584,55979.09
2796,20588,55999.12
2797,20596,56019.15
2798,20612,56039.18
2799,20632,56059.20
2800,20648,56079.23
2801,20668,56099.26
2802,20688,56119.29
2803,20704,56139.32
2804,20720,56159.35
2805,20736,56179.37
2806,20756,56199.40
2807,20760,56219.43
2808,20724,56239.46
2809,20628,56259.49
2810,20508,56279.52
2811,20396,56299.54
2812,20320,56319.57
2813,20292,56339.60
2814,20292,56359.63
2815,20312,56379.66
2816,20344,56399.69
2817,20384,56419.71
2818,20428,56439.74
2819,20468,56459.77
2820,20496,56479.80
2821,20512,56499.83
2822,20508,56519.86
2823,20504,56539.88
2824,20500,56559.91
2825,20500,56579.94
2826,20512,56599.97
2827,20524,56620.00
2828,20544,56640.02
2829,20568,56660.05
2830,20596,56680.08
2831,20620,56700.11
2832,20644,56720.14
2833,20672,56740.17
2834,20692,56760.19
2835,20716,56780.22
2836,20732,56800.25
2837,20752,56820.28
2838,20776,56840.31
2839,20768,56860.34
2840,20700,56880.36
2841,20572,56900.39
2842,20440,56920.42
2843,20340,56940.45
2844,20276,56960.48
2845,20260,56980.51
2846,20264,57000.53
2847,20280,57020.56
2848,20308,57040.59
2849,20336,57060.62
2850,20372,57080.65
2851,20400,57100.68
2852,20420,57120.70
2853,20432,57140.73
2854,20432,57160.76
2855,20428,57180.79
2856,20428,57200.82
2857,20432,57220.85
2858,20436,57240.87
2859,20452,57260.90
2860,20476,57280.93
2861,20500,57300.96
2862,20524,57320.99
2863,20548,57341.02
2864,20572,57361.04
2865,20596,57381.07
2866,20620,57401.10
2867,20648,57421.13
2868,20660,57441.16
2869,20684,57461.19
2870,20704,57481.21
2871,20728,57501.24
2872,20732,57521.27
2873,20684,57541.30
2874,20576,57561.33
2875,20436,57581.35
2876,20312,57601.38
2877,20228,57621.41
2878,20192,57641.44
2879,20188,57661.47
2880,20208,57681.50
2881,20232,57701.52
2882,20256,57721.55
2883,20296,57741.58
2884,20332,57761.61
2885,20356,57781.64
2886,20380,57801.67
2887,20384,57821.69
2888,20384,57841.72
2889,20380,57861.75
2890,20384,57881.78
2891,20388,57901.81
2892,20400,57921.84
2893,20420,57941.86
2894,20444,57961.89
2895,20468,57981.92
2896,20496,58001.95
2897,20520,58021.98
2898,20544,58042.01
2899,20564,58062.03
2900,20588,58082.06
2901,20604,58102.09
2902,20620,58122.12
2903,20644,58142.15
2904,20660,58162.18
2905,20684,58182.20
2906,20700,58202.23
2907,20712,58222.26
2908,20688,58242.29
2909,20600,58262.32
2910,20464,58282.35
2911,20328,58302.37
2912,20228,58322.40
2913,20184,58342.43
2914,20172,58362.46
2915,20184,58382.49
2916,20208,58402.52
2917,20240,58422.54
2918,20272,58442.57
2919,20312,58462.60
2920,20348,58482.63
2921,20364,58502.66
2922,20380,58522.68
2923,20384,58542.71
2924,20380,58562.74
2925,20376,58582.77
2926,20380,58602.80
2927,20388,58622.83
2928,20412,58642.85
2929,20436,58662.88
2930,20464,58682.91
2931,20492,58702.94
2932,20524,58722.97
2933,20552,58743.00
2934,20580,58763.02
2935,20600,58783.05
2936,20628,58803.08
2937,20652,58823.11
2938,20672,58843.14
2939,20696,58863.17
2940,20712,58883.19
2941,20732,58903.22
2942,20752,58923.25
2943,20768,58943.28
2944,20792,58963.31
2945,20808,58983.34
2946,20776,59003.36
2947,20684,59023.39
2948,20544,59043.42
2949,20396,59063.45
2950,20288,59083.48
2951,20236,59103.51
2952,20224,59123.53
2953,20240,59143.56
2954,20272,59163.59
2955,20304,59183.62
2956,20336,59203.65
2957,20376,59223.68
2958,20408,59243.70
2959,20432,59263.73
2960,20440,59283.76
2961,20440,59303.79
2962,20432,59323.82
2963,20420,59343.84
2964,20424,59363.87
2965,20428,59383.90
2966,20448,59403.93
2967,20468,59423.96
2968,20496,59443.99
2969,20528,59464.01
2970,20552,59484.04
2971,20580,59504.07
2972,20604,59524.10
2973,20632,59544.13
2974,20656,59564.16
2975,20680,59584.18
2976,20700,59604.21
2977,20716,59624.24
2978,20740,59644.27
2979,20756,59664.30
2980,20772,59684.33
2981,20792,59704.35
2982,20812,59724.38
2983,20836,59744.41
2984,20840,59764.44
2985,20788,59784.47
2986,20676,59804.50
2987,20524,59824.52
2988,20388,59844.55
2989,20308,59864.58
2990,20272,59884.61
2991,20272,59904.64
2992,20292,59924.67
2993,20328,59944.69
2994,20372,59964.72
2995,20416,59984.75
2996,20456,60004.78
2997,20496,60024.81
2998,20512,60044.84
2999,20512,60064.86
