Sample_Index,IR_Value,Timestamp_ms
0,22128,0.00
1,22096,20.03
2,22068,40.06
3,22056,60.09
4,22052,80.12
5,22048,100.15
6,22044,120.18
7,22032,140.21
8,22028,160.24
9,22024,180.27
10,22040,200.30
11,22064,220.34
12,22096,240.37
13,22128,260.40
14,22156,280.43
15,22144,300.46
16,22128,320.49
17,22124,340.52
18,22128,360.55
19,22132,380.58
20,22096,400.61
21,22008,420.64
22,21908,440.67
23,21792,460.70
24,21640,480.73
25,21488,500.76
26,21380,520.79
27,21340,540.82
28,21360,560.85
29,21416,580.88
30,21452,600.91
31,21480,620.94
32,21516,640.97
33,21572,661.01
34,21644,681.04
35,21696,701.07
36,21732,721.10
37,21752,741.13
38,21756,761.16
39,21776,781.19
40,21812,801.22
41,21856,821.25
42,21880,841.28
43,21904,861.31
44,21932,881.34
45,21960,901.37
46,21984,921.40
47,22004,941.43
48,22000,961.46
49,21996,981.49
50,22004,1001.52
51,22024,1021.55
52,22056,1041.58
53,22056,1061.61
54,22008,1081.64
55,21932,1101.68
56,21860,1121.71
57,21804,1141.74
58,21760,1161.77
59,21720,1181.80
60,21696,1201.83
61,21692,1221.86
62,21716,1241.89
63,21736,1261.92
64,21756,1281.95
65,21776,1301.98
66,21788,1322.01
67,21800,1342.04
68,21808,1362.07
69,21816,1382.10
70,21808,1402.13
71,21812,1422.16
72,21824,1442.19
73,21836,1462.22
74,21860,1482.25
75,21892,1502.28
76,21928,1522.31
77,21964,1542.35
78,21992,1562.38
79,22016,1582.41
80,22036,1602.44
81,22060,1622.47
82,22084,1642.50
83,22104,1662.53
84,22100,1682.56
85,22048,1702.59
86,21976,1722.62
87,21908,1742.65
88,21860,1762.68
89,21832,1782.71
90,21832,1802.74
91,21848,1822.77
92,21876,1842.80
93,21904,1862.83
94,21936,1882.86
95,21964,1902.89
96,21980,1922.92
97,21988,1942.95
98,21992,1962.98
99,22000,1983.02
100,22004,2003.05
101,22004,2023.08
102,22004,2043.11
103,22016,2063.14
104,22028,2083.17
105,22048,2103.20
106,22068,2123.23
107,22084,2143.26
108,22100,2163.29
109,22128,2183.32
110,22156,2203.35
111,22180,2223.38
112,22188,2243.41
113,22192,2263.44
114,22192,2283.47
115,22204,2303.50
116,22220,2323.53
117,22192,2343.56
118,22116,2363.59
119,22020,2383.62
120,21936,2403.65
121,21884,2423.69
122,21868,2443.72
123,21880,2463.75
124,21900,2483.78
125,21928,2503.81
126,21960,2523.84
127,21992,2543.87
128,22028,2563.90
129,22052,2583.93
130,22064,2603.96
131,22060,2623.99
132,22056,2644.02
133,22060,2664.05
134,22064,2684.08
135,22072,2704.11
136,22092,2724.14
137,22108,2744.17
138,22128,2764.20
139,22152,2784.23
140,22176,2804.26
141,22196,2824.29
142,22228,2844.32
143,22256,2864.36
144,22284,2884.39
145,22308,2904.42
146,22332,2924.45
147,22356,2944.48
148,22348,2964.51
149,22304,2984.54
150,22228,3004.57
151,22148,3024.60
152,22092,3044.63
153,22064,3064.66
154,22072,3084.69
155,22096,3104.72
156,22132,3124.75
157,22172,3144.78
158,22204,3164.81
159,22240,3184.84
160,22268,3204.87
161,22304,3224.90
162,22312,3244.93
163,22324,3264.96
164,22320,3284.99
165,22320,3305.03
166,22324,3325.06
167,22328,3345.09
168,22348,3365.12
169,22368,3385.15
170,22400,3405.18
171,22424,3425.21
172,22448,3445.24
173,22472,3465.27
174,22488,3485.30
175,22516,3505.33
176,22540,3525.36
177,22544,3545.39
178,22520,3565.42
179,22464,3585.45
180,22396,3605.48
181,22316,3625.51
182,22256,3645.54
183,22220,3665.57
184,22204,3685.60
185,22216,3705.63
186,22244,3725.66
187,22284,3745.70
188,22320,3765.73
189,22344,3785.76
190,22360,3805.79
191,22368,3825.82
192,22376,3845.85
193,22380,3865.88
194,22376,3885.91
195,22380,3905.94
196,22396,3925.97
197,22428,3946.00
198,22460,3966.03
199,22484,3986.06
200,22512,4006.09
201,22536,4026.12
202,22568,4046.15
203,22592,4066.18
204,22612,4086.21
205,22632,4106.24
206,22660,4126.27
207,22688,4146.30
208,22712,4166.33
209,22712,4186.37
210,22680,4206.40
211,22632,4226.43
212,22584,4246.46
213,22560,4266.49
214,22552,4286.52
215,22564,4306.55
216,22584,4326.58
217,22624,4346.61
218,22664,4366.64
219,22704,4386.67
220,22744,4406.70
221,22788,4426.73
222,22824,4446.76
223,22852,4466.79
224,22868,4486.82
225,22872,4506.85
226,22884,4526.88
227,22896,4546.91
228,22912,4566.94
229,22924,4586.97
230,22940,4607.00
231,22960,4627.04
232,22980,4647.07
233,23000,4667.10
234,23020,4687.13
235,23032,4707.16
236,23048,4727.19
237,23068,4747.22
238,23084,4767.25
239,23112,4787.28
240,23140,4807.31
241,23168,4827.34
242,23204,4847.37
243,23232,4867.40
244,23256,4887.43
245,23288,4907.46
246,23312,4927.49
247,23324,4947.52
248,23308,4967.55
249,23284,4987.58
250,23252,5007.61
251,23236,5027.64
252,23224,5047.67
253,23228,5067.71
254,23236,5087.74
255,23248,5107.77
256,23256,5127.80
257,23268,5147.83
258,23280,5167.86
259,23292,5187.89
260,23304,5207.92
261,23308,5227.95
262,23312,5247.98
263,23308,5268.01
264,23308,5288.04
265,23308,5308.07
266,23312,5328.10
267,23316,5348.13
268,23324,5368.16
269,23328,5388.19
270,23332,5408.22
271,23332,5428.25
272,23344,5448.28
273,23356,5468.31
274,23372,5488.35
275,23384,5508.38
276,23388,5528.41
277,23400,5548.44
278,23416,5568.47
279,23432,5588.50
280,23456,5608.53
281,23472,5628.56
282,23476,5648.59
283,23460,5668.62
284,23440,5688.65
285,23420,5708.68
286,23404,5728.71
287,23400,5748.74
288,23404,5768.77
289,23416,5788.80
290,23436,5808.83
291,23456,5828.86
292,23480,5848.89
293,23496,5868.92
294,23512,5888.95
295,23516,5908.98
296,23524,5929.02
297,23524,5949.05
298,23516,5969.08
299,23512,5989.11
300,23512,6009.14
301,23516,6029.17
302,23524,6049.20
303,23536,6069.23
304,23548,6089.26
305,23552,6109.29
306,23560,6129.32
307,23576,6149.35
308,23588,6169.38
309,23596,6189.41
310,23608,6209.44
311,23624,6229.47
312,23628,6249.50
313,23640,6269.53
314,23652,6289.56
315,23644,6309.59
316,23632,6329.62
317,23616,6349.65
318,23604,6369.69
319,23604,6389.72
320,23608,6409.75
321,23612,6429.78
322,23632,6449.81
323,23648,6469.84
324,23660,6489.87
325,23676,6509.90
326,23688,6529.93
327,23704,6549.96
328,23708,6569.99
329,23716,6590.02
330,23724,6610.05
331,23728,6630.08
332,23736,6650.11
333,23744,6670.14
334,23756,6690.17
335,23764,6710.20
336,23776,6730.23
337,23788,6750.26
338,23800,6770.29
339,23812,6790.32
340,23820,6810.36
341,23832,6830.39
342,23840,6850.42
343,23848,6870.45
344,23856,6890.48
345,23864,6910.51
346,23868,6930.54
347,23880,6950.57
348,23888,6970.60
349,23900,6990.63
350,23908,7010.66
351,23912,7030.69
352,23904,7050.72
353,23896,7070.75
354,23880,7090.78
355,23872,7110.81
356,23868,7130.84
357,23872,7150.87
358,23880,7170.90
359,23892,7190.93
360,23900,7210.96
361,23912,7230.99
362,23924,7251.03
363,23936,7271.06
364,23948,7291.09
365,23960,7311.12
366,23972,7331.15
367,23980,7351.18
368,23988,7371.21
369,23996,7391.24
370,24004,7411.27
371,24016,7431.30
372,24028,7451.33
373,24040,7471.36
374,24056,7491.39
375,24072,7511.42
376,24084,7531.45
377,24100,7551.48
378,24108,7571.51
379,24124,7591.54
380,24128,7611.57
381,24136,7631.60
382,24148,7651.63
383,24156,7671.66
384,24168,7691.70
385,24180,7711.73
386,24192,7731.76
387,24204,7751.79
388,24208,7771.82
389,24208,7791.85
390,24196,7811.88
391,24192,7831.91
392,24188,7851.94
393,24184,7871.97
394,24188,7892.00
395,24196,7912.03
396,24208,7932.06
397,24220,7952.09
398,24228,7972.12
399,24240,7992.15
400,24248,8012.18
401,24252,8032.21
402,24252,8052.24
403,24256,8072.27
404,24260,8092.30
405,24264,8112.33
406,24272,8132.37
407,24280,8152.40
408,24284,8172.43
409,24296,8192.46
410,24300,8212.49
411,24312,8232.52
412,24320,8252.55
413,24324,8272.58
414,24336,8292.61
415,24340,8312.64
416,24344,8332.67
417,24352,8352.70
418,24360,8372.73
419,24368,8392.76
420,24376,8412.79
421,24384,8432.82
422,24392,8452.85
423,24388,8472.88
424,24380,8492.91
425,24372,8512.94
426,24372,8532.97
427,24368,8553.00
428,24372,8573.04
429,24376,8593.07
430,24384,8613.10
431,24392,8633.13
432,24400,8653.16
433,24400,8673.19
434,24404,8693.22
435,24404,8713.25
436,24396,8733.28
437,24392,8753.31
438,24388,8773.34
439,24384,8793.37
440,24380,8813.40
441,24380,8833.43
442,24384,8853.46
443,24392,8873.49
444,24396,8893.52
445,24400,8913.55
446,24400,8933.58
447,24408,8953.61
448,24408,8973.64
449,24412,8993.67
450,24416,9013.71
451,24420,9033.74
452,24428,9053.77
453,24436,9073.80
454,24444,9093.83
455,24444,9113.86
456,24440,9133.89
457,24432,9153.92
458,24428,9173.95
459,24428,9193.98
460,24432,9214.01
461,24440,9234.04
462,24448,9254.07
463,24452,9274.10
464,24464,9294.13
465,24472,9314.16
466,24476,9334.19
467,24484,9354.22
468,24488,9374.25
469,24488,9394.28
470,24488,9414.31
471,24492,9434.34
472,24496,9454.38
473,24508,9474.41
474,24508,9494.44
475,24516,9514.47
476,24520,9534.50
477,24520,9554.53
478,24528,9574.56
479,24532,9594.59
480,24536,9614.62
481,24540,9634.65
482,24544,9654.68
483,24552,9674.71
484,24560,9694.74
485,24576,9714.77
486,24592,9734.80
487,24608,9754.83
488,24620,9774.86
489,24628,9794.89
490,24632,9814.92
491,24636,9834.95
492,24640,9854.98
493,24632,9875.01
494,24612,9895.05
495,24600,9915.08
496,24588,9935.11
497,24580,9955.14
498,24580,9975.17
499,24584,9995.20
500,24588,10015.23
501,24596,10035.26
502,24604,10055.29
503,24612,10075.32
504,24620,10095.35
505,24624,10115.38
506,24624,10135.41
507,24620,10155.44
508,24624,10175.47
509,24628,10195.50
510,24624,10215.53
511,24628,10235.56
512,24628,10255.59
513,24628,10275.62
514,24628,10295.65
515,24628,10315.69
516,24628,10335.72
517,24628,10355.75
518,24632,10375.78
519,24632,10395.81
520,24636,10415.84
521,24636,10435.87
522,24644,10455.90
523,24648,10475.93
524,24648,10495.96
525,24648,10515.99
526,24656,10536.02
527,24656,10556.05
528,24652,10576.08
529,24640,10596.11
530,24628,10616.14
531,24604,10636.17
532,24588,10656.20
533,24576,10676.23
534,24568,10696.26
535,24568,10716.29
536,24568,10736.32
537,24568,10756.36
538,24564,10776.39
539,24568,10796.42
540,24560,10816.45
541,24560,10836.48
542,24556,10856.51
543,24552,10876.54
544,24548,10896.57
545,24540,10916.60
546,24536,10936.63
547,24540,10956.66
548,24536,10976.69
549,24536,10996.72
550,24536,11016.75
551,24532,11036.78
552,24532,11056.81
553,24528,11076.84
554,24528,11096.87
555,24528,11116.90
556,24524,11136.93
557,24524,11156.96
558,24524,11176.99
559,24520,11197.03
560,24520,11217.06
561,24508,11237.09
562,24488,11257.12
563,24464,11277.15
564,24440,11297.18
565,24412,11317.21
566,24388,11337.24
567,24380,11357.27
568,24380,11377.30
569,24376,11397.33
570,24380,11417.36
571,24380,11437.39
572,24376,11457.42
573,24372,11477.45
574,24368,11497.48
575,24360,11517.51
576,24356,11537.54
577,24352,11557.57
578,24348,11577.60
579,24344,11597.63
580,24340,11617.66
581,24340,11637.70
582,24340,11657.73
583,24340,11677.76
584,24340,11697.79
585,24344,11717.82
586,24348,11737.85
587,24348,11757.88
588,24356,11777.91
589,24360,11797.94
590,24368,11817.97
591,24372,11838.00
592,24376,11858.03
593,24372,11878.06
594,24356,11898.09
595,24332,11918.12
596,24300,11938.15
597,24268,11958.18
598,24248,11978.21
599,24236,11998.24
600,24232,12018.27
601,24232,12038.30
602,24232,12058.33
603,24232,12078.37
604,24240,12098.40
605,24240,12118.43
606,24240,12138.46
607,24236,12158.49
608,24236,12178.52
609,24224,12198.55
610,24216,12218.58
611,24208,12238.61
612,24204,12258.64
613,24204,12278.67
614,24204,12298.70
615,24208,12318.73
616,24204,12338.76
617,24204,12358.79
618,24204,12378.82
619,24208,12398.85
620,24212,12418.88
621,24220,12438.91
622,24224,12458.94
623,24228,12478.97
624,24240,12499.00
625,24244,12519.04
626,24248,12539.07
627,24240,12559.10
628,24228,12579.13
629,24196,12599.16
630,24164,12619.19
631,24136,12639.22
632,24116,12659.25
633,24108,12679.28
634,24100,12699.31
635,24104,12719.34
636,24116,12739.37
637,24124,12759.40
638,24136,12779.43
639,24144,12799.46
640,24148,12819.49
641,24152,12839.52
642,24156,12859.55
643,24152,12879.58
644,24152,12899.61
645,24156,12919.64
646,24160,12939.67
647,24160,12959.71
648,24168,12979.74
649,24176,12999.77
650,24180,13019.80
651,24192,13039.83
652,24204,13059.86
653,24208,13079.89
654,24220,13099.92
655,24220,13119.95
656,24228,13139.98
657,24236,13160.01
658,24240,13180.04
659,24240,13200.07
660,24228,13220.10
661,24208,13240.13
662,24172,13260.16
663,24136,13280.19
664,24112,13300.22
665,24092,13320.25
666,24088,13340.28
667,24084,13360.31
668,24088,13380.34
669,24096,13400.38
670,24104,13420.41
671,24112,13440.44
672,24116,13460.47
673,24116,13480.50
674,24120,13500.53
675,24112,13520.56
676,24104,13540.59
677,24100,13560.62
678,24096,13580.65
679,24104,13600.68
680,24104,13620.71
681,24108,13640.74
682,24116,13660.77
683,24120,13680.80
684,24124,13700.83
685,24132,13720.86
686,24136,13740.89
687,24144,13760.92
688,24152,13780.95
689,24156,13800.98
690,24144,13821.01
691,24116,13841.05
692,24068,13861.08
693,24016,13881.11
694,23968,13901.14
695,23936,13921.17
696,23916,13941.20
697,23908,13961.23
698,23920,13981.26
699,23920,14001.29
700,23928,14021.32
701,23936,14041.35
702,23944,14061.38
703,23944,14081.41
704,23940,14101.44
705,23924,14121.47
706,23916,14141.50
707,23912,14161.53
708,23904,14181.56
709,23904,14201.59
710,23912,14221.62
711,23920,14241.65
712,23932,14261.68
713,23940,14281.72
714,23948,14301.75
715,23956,14321.78
716,23964,14341.81
717,23972,14361.84
718,23980,14381.87
719,23996,14401.90
720,24000,14421.93
721,24012,14441.96
722,24000,14461.99
723,23972,14482.02
724,23916,14502.05
725,23864,14522.08
726,23820,14542.11
727,23784,14562.14
728,23772,14582.17
729,23768,14602.20
730,23776,14622.23
731,23784,14642.26
732,23800,14662.29
733,23816,14682.32
734,23828,14702.35
735,23832,14722.39
736,23836,14742.42
737,23836,14762.45
738,23836,14782.48
739,23836,14802.51
740,23840,14822.54
741,23844,14842.57
742,23856,14862.60
743,23868,14882.63
744,23884,14902.66
745,23892,14922.69
746,23904,14942.72
747,23912,14962.75
748,23920,14982.78
749,23932,15002.81
750,23944,15022.84
751,23956,15042.87
752,23972,15062.90
753,23984,15082.93
754,23996,15102.96
755,24004,15122.99
756,23984,15143.02
757,23944,15163.06
758,23892,15183.09
759,23836,15203.12
760,23792,15223.15
761,23764,15243.18
762,23756,15263.21
763,23760,15283.24
764,23764,15303.27
765,23776,15323.30
766,23784,15343.33
767,23796,15363.36
768,23804,15383.39
769,23804,15403.42
770,23796,15423.45
771,23788,15443.48
772,23784,15463.51
773,23780,15483.54
774,23780,15503.57
775,23784,15523.60
776,23792,15543.63
777,23804,15563.66
778,23812,15583.70
779,23820,15603.73
780,23828,15623.76
781,23836,15643.79
782,23848,15663.82
783,23856,15683.85
784,23868,15703.88
785,23880,15723.91
786,23888,15743.94
787,23900,15763.97
788,23896,15784.00
789,23868,15804.03
790,23812,15824.06
791,23744,15844.09
792,23684,15864.12
793,23632,15884.15
794,23608,15904.18
795,23600,15924.21
796,23604,15944.24
797,23620,15964.27
798,23636,15984.30
799,23656,16004.33
800,23672,16024.37
801,23680,16044.40
802,23680,16064.43
803,23676,16084.46
804,23664,16104.49
805,23660,16124.52
806,23652,16144.55
807,23648,16164.58
808,23648,16184.61
809,23656,16204.64
810,23668,16224.67
811,23672,16244.70
812,23684,16264.73
813,23696,16284.76
814,23708,16304.79
815,23720,16324.82
816,23736,16344.85
817,23756,16364.88
818,23756,16384.91
819,23736,16404.94
820,23688,16424.97
821,23616,16445.00
822,23544,16465.04
823,23480,16485.07
824,23440,16505.10
825,23416,16525.13
826,23412,16545.16
827,23428,16565.19
828,23448,16585.22
829,23472,16605.25
830,23492,16625.28
831,23504,16645.31
832,23508,16665.34
833,23500,16685.37
834,23488,16705.40
835,23476,16725.43
836,23472,16745.46
837,23472,16765.49
838,23472,16785.52
839,23484,16805.55
840,23500,16825.58
841,23512,16845.61
842,23528,16865.64
843,23544,16885.67
844,23560,16905.71
845,23580,16925.74
846,23592,16945.77
847,23608,16965.80
848,23624,16985.83
849,23628,17005.86
850,23608,17025.89
851,23556,17045.92
852,23488,17065.95
853,23424,17085.98
854,23376,17106.01
855,23352,17126.04
856,23348,17146.07
857,23364,17166.10
858,23384,17186.13
859,23404,17206.16
860,23428,17226.19
861,23448,17246.22
862,23472,17266.25
863,23480,17286.28
864,23480,17306.31
865,23472,17326.34
866,23464,17346.38
867,23464,17366.41
868,23464,17386.44
869,23472,17406.47
870,23484,17426.50
871,23500,17446.53
872,23520,17466.56
873,23532,17486.59
874,23552,17506.62
875,23568,17526.65
876,23588,17546.68
877,23600,17566.71
878,23616,17586.74
879,23636,17606.77
880,23648,17626.80
881,23648,17646.83
882,23612,17666.86
883,23552,17686.89
884,23484,17706.92
885,23416,17726.95
886,23372,17746.98
887,23352,17767.01
888,23356,17787.05
889,23364,17807.08
890,23392,17827.11
891,23416,17847.14
892,23444,17867.17
893,23464,17887.20
894,23480,17907.23
895,23488,17927.26
896,23480,17947.29
897,23472,17967.32
898,23472,17987.35
899,23464,18007.38
900,23468,18027.41
901,23476,18047.44
902,23484,18067.47
903,23504,18087.50
904,23520,18107.53
905,23540,18127.56
906,23556,18147.59
907,23576,18167.62
908,23592,18187.65
909,23616,18207.68
910,23632,18227.72
911,23644,18247.75
912,23640,18267.78
913,23604,18287.81
914,23540,18307.84
915,23472,18327.87
916,23408,18347.90
917,23372,18367.93
918,23356,18387.96
919,23368,18407.99
920,23384,18428.02
921,23408,18448.05
922,23436,18468.08
923,23472,18488.11
924,23496,18508.14
925,23512,18528.17
926,23520,18548.20
927,23516,18568.23
928,23504,18588.26
929,23500,18608.29
930,23496,18628.32
931,23500,18648.35
932,23508,18668.39
933,23516,18688.42
934,23532,18708.45
935,23548,18728.48
936,23564,18748.51
937,23580,18768.54
938,23604,18788.57
939,23624,18808.60
940,23640,18828.63
941,23648,18848.66
942,23628,18868.69
943,23576,18888.72
944,23512,18908.75
945,23452,18928.78
946,23412,18948.81
947,23388,18968.84
948,23388,18988.87
949,23400,19008.90
950,23424,19028.93
951,23452,19048.96
952,23480,19068.99
953,23504,19089.02
954,23520,19109.06
955,23524,19129.09
956,23520,19149.12
957,23516,19169.15
958,23504,19189.18
959,23500,19209.21
960,23500,19229.24
961,23496,19249.27
962,23500,19269.30
963,23500,19289.33
964,23504,19309.36
965,23508,19329.39
966,23520,19349.42
967,23528,19369.45
968,23544,19389.48
969,23560,19409.51
970,23552,19429.54
971,23520,19449.57
972,23456,19469.60
973,23384,19489.63
974,23324,19509.66
975,23288,19529.69
976,23272,19549.73
977,23280,19569.76
978,23308,19589.79
979,23336,19609.82
980,23372,19629.85
981,23404,19649.88
982,23432,19669.91
983,23444,19689.94
984,23452,19709.97
985,23452,19730.00
986,23444,19750.03
987,23440,19770.06
988,23440,19790.09
989,23448,19810.12
990,23460,19830.15
991,23476,19850.18
992,23496,19870.21
993,23508,19890.24
994,23524,19910.27
995,23540,19930.30
996,23560,19950.33
997,23576,19970.36
998,23584,19990.40
999,23564,20010.43
1000,23504,20030.46
1001,23420,20050.49
1002,23332,20070.52
1003,23268,20090.55
1004,23232,20110.58
1005,23216,20130.61
1006,23228,20150.64
1007,23244,20170.67
1008,23264,20190.70
1009,23300,20210.73
1010,23320,20230.76
1011,23344,20250.79
1012,23356,20270.82
1013,23356,20290.85
1014,23344,20310.88
1015,23340,20330.91
1016,23332,20350.94
1017,23336,20370.97
1018,23344,20391.00
1019,23360,20411.04
1020,23376,20431.07
1021,23396,20451.10
1022,23412,20471.13
1023,23432,20491.16
1024,23456,20511.19
1025,23472,20531.22
1026,23492,20551.25
1027,23508,20571.28
1028,23504,20591.31
1029,23464,20611.34
1030,23384,20631.37
1031,23300,20651.40
1032,23220,20671.43
1033,23172,20691.46
1034,23156,20711.49
1035,23156,20731.52
1036,23176,20751.55
1037,23200,20771.58
1038,23232,20791.61
1039,23264,20811.64
1040,23296,20831.67
1041,23312,20851.71
1042,23312,20871.74
1043,23312,20891.77
1044,23300,20911.80
1045,23292,20931.83
1046,23284,20951.86
1047,23284,20971.89
1048,23288,20991.92
1049,23308,21011.95
1050,23320,21031.98
1051,23336,21052.01
1052,23356,21072.04
1053,23376,21092.07
1054,23396,21112.10
1055,23412,21132.13
1056,23432,21152.16
1057,23448,21172.19
1058,23436,21192.22
1059,23384,21212.25
1060,23312,21232.28
1061,23232,21252.31
1062,23168,21272.34
1063,23140,21292.38
1064,23132,21312.41
1065,23152,21332.44
1066,23180,21352.47
1067,23212,21372.50
1068,23252,21392.53
1069,23288,21412.56
1070,23308,21432.59
1071,23324,21452.62
1072,23324,21472.65
1073,23316,21492.68
1074,23304,21512.71
1075,23300,21532.74
1076,23300,21552.77
1077,23304,21572.80
1078,23320,21592.83
1079,23332,21612.86
1080,23348,21632.89
1081,23372,21652.92
1082,23388,21672.95
1083,23404,21692.98
1084,23424,21713.01
1085,23436,21733.05
1086,23440,21753.08
1087,23416,21773.11
1088,23352,21793.14
1089,23276,21813.17
1090,23204,21833.20
1091,23148,21853.23
1092,23124,21873.26
1093,23120,21893.29
1094,23132,21913.32
1095,23152,21933.35
1096,23180,21953.38
1097,23208,21973.41
1098,23228,21993.44
1099,23236,22013.47
1100,23240,22033.50
1101,23232,22053.53
1102,23224,22073.56
1103,23224,22093.59
1104,23228,22113.62
1105,23236,22133.65
1106,23244,22153.68
1107,23260,22173.72
1108,23276,22193.75
1109,23288,22213.78
1110,23304,22233.81
1111,23324,22253.84
1112,23344,22273.87
1113,23364,22293.90
1114,23364,22313.93
1115,23324,22333.96
1116,23244,22353.99
1117,23164,22374.02
1118,23092,22394.05
1119,23048,22414.08
1120,23036,22434.11
1121,23048,22454.14
1122,23080,22474.17
1123,23112,22494.20
1124,23152,22514.23
1125,23184,22534.26
1126,23216,22554.29
1127,23228,22574.32
1128,23232,22594.35
1129,23224,22614.39
1130,23212,22634.42
1131,23200,22654.45
1132,23196,22674.48
1133,23204,22694.51
1134,23208,22714.54
1135,23220,22734.57
1136,23240,22754.60
1137,23256,22774.63
1138,23280,22794.66
1139,23300,22814.69
1140,23320,22834.72
1141,23336,22854.75
1142,23332,22874.78
1143,23288,22894.81
1144,23208,22914.84
1145,23112,22934.87
1146,23036,22954.90
1147,22996,22974.93
1148,22984,22994.96
1149,22996,23014.99
1150,23020,23035.02
1151,23048,23055.06
1152,23084,23075.09
1153,23120,23095.12
1154,23148,23115.15
1155,23164,23135.18
1156,23168,23155.21
1157,23168,23175.24
1158,23160,23195.27
1159,23152,23215.30
1160,23152,23235.33
1161,23156,23255.36
1162,23160,23275.39
1163,23176,23295.42
1164,23192,23315.45
1165,23216,23335.48
1166,23228,23355.51
1167,23252,23375.54
1168,23272,23395.57
1169,23292,23415.60
1170,23312,23435.63
1171,23316,23455.66
1172,23284,23475.69
1173,23204,23495.73
1174,23112,23515.76
1175,23028,23535.79
1176,22972,23555.82
1177,22952,23575.85
1178,22952,23595.88
1179,22980,23615.91
1180,23016,23635.94
1181,23052,23655.97
1182,23088,23676.00
1183,23116,23696.03
1184,23136,23716.06
1185,23132,23736.09
1186,23124,23756.12
1187,23112,23776.15
1188,23104,23796.18
1189,23104,23816.21
1190,23104,23836.24
1191,23120,23856.27
1192,23136,23876.30
1193,23152,23896.33
1194,23176,23916.36
1195,23196,23936.40
1196,23220,23956.43
1197,23240,23976.46
1198,23260,23996.49
1199,23276,24016.52
1200,23276,24036.55
1201,23228,24056.58
1202,23152,24076.61
1203,23076,24096.64
1204,23012,24116.67
1205,22976,24136.70
1206,22972,24156.73
1207,22988,24176.76
1208,23020,24196.79
1209,23056,24216.82
1210,23096,24236.85
1211,23132,24256.88
1212,23164,24276.91
1213,23168,24296.94
1214,23164,24316.97
1215,23156,24337.00
1216,23144,24357.03
1217,23132,24377.07
1218,23132,24397.10
1219,23136,24417.13
1220,23148,24437.16
1221,23164,24457.19
1222,23176,24477.22
1223,23192,24497.25
1224,23208,24517.28
1225,23220,24537.31
1226,23236,24557.34
1227,23252,24577.37
1228,23256,24597.40
1229,23220,24617.43
1230,23144,24637.46
1231,23060,24657.49
1232,22980,24677.52
1233,22936,24697.55
1234,22924,24717.58
1235,22936,24737.61
1236,22960,24757.64
1237,22996,24777.67
1238,23032,24797.70
1239,23072,24817.74
1240,23092,24837.77
1241,23100,24857.80
1242,23084,24877.83
1243,23060,24897.86
1244,23040,24917.89
1245,23028,24937.92
1246,23032,24957.95
1247,23040,24977.98
1248,23048,24998.01
1249,23064,25018.04
1250,23080,25038.07
1251,23096,25058.10
1252,23112,25078.13
1253,23132,25098.16
1254,23144,25118.19
1255,23156,25138.22
1256,23168,25158.25
1257,23148,25178.28
1258,23084,25198.31
1259,22988,25218.34
1260,22896,25238.37
1261,22824,25258.41
1262,22788,25278.44
1263,22788,25298.47
1264,22800,25318.50
1265,22828,25338.53
1266,22856,25358.56
1267,22892,25378.59
1268,22928,25398.62
1269,22948,25418.65
1270,22960,25438.68
1271,22952,25458.71
1272,22944,25478.74
1273,22932,25498.77
1274,22928,25518.80
1275,22928,25538.83
1276,22936,25558.86
1277,22956,25578.89
1278,22972,25598.92
1279,22992,25618.95
1280,23008,25638.98
1281,23028,25659.01
1282,23048,25679.05
1283,23064,25699.08
1284,23080,25719.11
1285,23104,25739.14
1286,23116,25759.17
1287,23100,25779.20
1288,23032,25799.23
1289,22932,25819.26
1290,22828,25839.29
1291,22756,25859.32
1292,22720,25879.35
1293,22716,25899.38
1294,22740,25919.41
1295,22772,25939.44
1296,22808,25959.47
1297,22848,25979.50
1298,22888,25999.53
1299,22916,26019.56
1300,22924,26039.59
1301,22924,26059.62
1302,22920,26079.65
1303,22908,26099.68
1304,22908,26119.72
1305,22912,26139.75
1306,22924,26159.78
1307,22936,26179.81
1308,22956,26199.84
1309,22972,26219.87
1310,23000,26239.90
1311,23016,26259.93
1312,23036,26279.96
1313,23052,26299.99
1314,23068,26320.02
1315,23088,26340.05
1316,23100,26360.08
1317,23108,26380.11
1318,23096,26400.14
1319,23024,26420.17
1320,22928,26440.20
1321,22824,26460.23
1322,22752,26480.26
1323,22712,26500.29
1324,22704,26520.32
1325,22724,26540.35
1326,22756,26560.39
1327,22788,26580.42
1328,22824,26600.45
1329,22864,26620.48
1330,22892,26640.51
1331,22904,26660.54
1332,22904,26680.57
1333,22900,26700.60
1334,22892,26720.63
1335,22880,26740.66
1336,22880,26760.69
1337,22884,26780.72
1338,22896,26800.75
1339,22920,26820.78
1340,22952,26840.81
1341,22984,26860.84
1342,23008,26880.87
1343,23016,26900.90
1344,23012,26920.93
1345,23012,26940.96
1346,23008,26960.99
1347,23008,26981.02
1348,22988,27001.06
1349,22920,27021.09
1350,22828,27041.12
1351,22744,27061.15
1352,22688,27081.18
1353,22664,27101.21
1354,22672,27121.24
1355,22696,27141.27
1356,22724,27161.30
1357,22752,27181.33
1358,22784,27201.36
1359,22808,27221.39
1360,22820,27241.42
1361,22820,27261.45
1362,22816,27281.48
1363,22800,27301.51
1364,22780,27321.54
1365,22768,27341.57
1366,22764,27361.60
1367,22768,27381.63
1368,22772,27401.66
1369,22772,27421.69
1370,22772,27441.73
1371,22776,27461.76
1372,22792,27481.79
1373,22812,27501.82
1374,22836,27521.85
1375,22860,27541.88
1376,22880,27561.91
1377,22868,27581.94
1378,22808,27601.97
1379,22724,27622.00
1380,22652,27642.03
1381,22608,27662.06
1382,22588,27682.09
1383,22604,27702.12
1384,22636,27722.15
1385,22676,27742.18
1386,22724,27762.21
1387,22768,27782.24
1388,22808,27802.27
1389,22828,27822.30
1390,22836,27842.33
1391,22832,27862.36
1392,22820,27882.40
1393,22812,27902.43
1394,22812,27922.46
1395,22816,27942.49
1396,22824,27962.52
1397,22836,27982.55
1398,22860,28002.58
1399,22876,28022.61
1400,22896,28042.64
1401,22912,28062.67
1402,22928,28082.70
1403,22944,28102.73
1404,22960,28122.76
1405,22972,28142.79
1406,22960,28162.82
1407,22904,28182.85
1408,22808,28202.88
1409,22704,28222.91
1410,22624,28242.94
1411,22584,28262.97
1412,22576,28283.00
1413,22592,28303.03
1414,22620,28323.07
1415,22656,28343.10
1416,22696,28363.13
1417,22740,28383.16
1418,22772,28403.19
1419,22792,28423.22
1420,22800,28443.25
1421,22800,28463.28
1422,22792,28483.31
1423,22784,28503.34
1424,22780,28523.37
1425,22788,28543.40
1426,22788,28563.43
1427,22804,28583.46
1428,22824,28603.49
1429,22844,28623.52
1430,22860,28643.55
1431,22876,28663.58
1432,22892,28683.61
1433,22908,28703.64
1434,22932,28723.67
1435,22952,28743.70
1436,22948,28763.74
1437,22900,28783.77
1438,22804,28803.80
1439,22704,28823.83
1440,22628,28843.86
1441,22584,28863.89
1442,22584,28883.92
1443,22600,28903.95
1444,22628,28923.98
1445,22660,28944.01
1446,22700,28964.04
1447,22736,28984.07
1448,22768,29004.10
1449,22788,29024.13
1450,22788,29044.16
1451,22780,29064.19
1452,22768,29084.22
1453,22764,29104.25
1454,22760,29124.28
1455,22768,29144.31
1456,22784,29164.34
1457,22796,29184.37
1458,22812,29204.41
1459,22828,29224.44
1460,22840,29244.47
1461,22856,29264.50
1462,22872,29284.53
1463,22892,29304.56
1464,22912,29324.59
1465,22932,29344.62
1466,22912,29364.65
1467,22840,29384.68
1468,22740,29404.71
1469,22660,29424.74
1470,22600,29444.77
1471,22584,29464.80
1472,22588,29484.83
1473,22612,29504.86
1474,22648,29524.89
1475,22692,29544.92
1476,22740,29564.95
1477,22780,29584.98
1478,22808,29605.01
1479,22820,29625.04
1480,22820,29645.08
1481,22808,29665.11
1482,22792,29685.14
1483,22784,29705.17
1484,22788,29725.20
1485,22796,29745.23
1486,22804,29765.26
1487,22820,29785.29
1488,22840,29805.32
1489,22860,29825.35
1490,22880,29845.38
1491,22904,29865.41
1492,22928,29885.44
1493,22940,29905.47
1494,22912,29925.50
1495,22844,29945.53
1496,22756,29965.56
1497,22680,29985.59
1498,22636,30005.62
1499,22616,30025.65
1500,22628,30045.68
1501,22652,30065.71
1502,22684,30085.75
1503,22720,30105.78
1504,22764,30125.81
1505,22784,30145.84
1506,22792,30165.87
1507,22784,30185.90
1508,22760,30205.93
1509,22736,30225.96
1510,22716,30245.99
1511,22696,30266.02
1512,22692,30286.05
1513,22700,30306.08
1514,22716,30326.11
1515,22732,30346.14
1516,22752,30366.17
1517,22776,30386.20
1518,22804,30406.23
1519,22832,30426.26
1520,22836,30446.29
1521,22796,30466.32
1522,22716,30486.35
1523,22628,30506.38
1524,22560,30526.42
1525,22524,30546.45
1526,22520,30566.48
1527,22532,30586.51
1528,22564,30606.54
1529,22604,30626.57
1530,22644,30646.60
1531,22684,30666.63
1532,22712,30686.66
1533,22732,30706.69
1534,22732,30726.72
1535,22724,30746.75
1536,22716,30766.78
1537,22712,30786.81
1538,22708,30806.84
1539,22716,30826.87
1540,22732,30846.90
1541,22744,30866.93
1542,22760,30886.96
1543,22776,30906.99
1544,22796,30927.02
1545,22816,30947.06
1546,22832,30967.09
1547,22832,30987.12
1548,22784,31007.15
1549,22696,31027.18
1550,22588,31047.21
1551,22508,31067.24
1552,22460,31087.27
1553,22452,31107.30
1554,22464,31127.33
1555,22492,31147.36
1556,22524,31167.39
1557,22556,31187.42
1558,22588,31207.45
1559,22620,31227.48
1560,22640,31247.51
1561,22648,31267.54
1562,22648,31287.57
1563,22644,31307.60
1564,22640,31327.63
1565,22644,31347.66
1566,22656,31367.69
1567,22672,31387.73
1568,22688,31407.76
1569,22716,31427.79
1570,22744,31447.82
1571,22764,31467.85
1572,22792,31487.88
1573,22808,31507.91
1574,22828,31527.94
1575,22824,31547.97
1576,22780,31568.00
1577,22688,31588.03
1578,22588,31608.06
1579,22504,31628.09
1580,22460,31648.12
1581,22452,31668.15
1582,22464,31688.18
1583,22484,31708.21
1584,22516,31728.24
1585,22544,31748.27
1586,22572,31768.30
1587,22596,31788.33
1588,22608,31808.36
1589,22612,31828.40
1590,22608,31848.43
1591,22600,31868.46
1592,22592,31888.49
1593,22592,31908.52
1594,22600,31928.55
1595,22612,31948.58
1596,22632,31968.61
1597,22648,31988.64
1598,22668,32008.67
1599,22692,32028.70
1600,22708,32048.73
1601,22728,32068.76
1602,22752,32088.79
1603,22752,32108.82
1604,22700,32128.85
1605,22608,32148.88
1606,22516,32168.91
1607,22448,32188.94
1608,22416,32208.97
1609,22412,32229.00
1610,22436,32249.03
1611,22468,32269.07
1612,22504,32289.10
1613,22544,32309.13
1614,22580,32329.16
1615,22604,32349.19
1616,22628,32369.22
1617,22628,32389.25
1618,22616,32409.28
1619,22608,32429.31
1620,22604,32449.34
1621,22608,32469.37
1622,22616,32489.40
1623,22632,32509.43
1624,22648,32529.46
1625,22664,32549.49
1626,22680,32569.52
1627,22684,32589.55
1628,22692,32609.58
1629,22696,32629.61
1630,22696,32649.64
1631,22664,32669.67
1632,22588,32689.70
1633,22492,32709.74
1634,22404,32729.77
1635,22340,32749.80
1636,22324,32769.83
1637,22328,32789.86
1638,22348,32809.89
1639,22376,32829.92
1640,22404,32849.95
1641,22444,32869.98
1642,22468,32890.01
1643,22492,32910.04
1644,22492,32930.07
1645,22492,32950.10
1646,22484,32970.13
1647,22488,32990.16
1648,22500,33010.19
1649,22520,33030.22
1650,22540,33050.25
1651,22568,33070.28
1652,22592,33090.31
1653,22616,33110.34
1654,22648,33130.37
1655,22664,33150.41
1656,22684,33170.44
1657,22696,33190.47
1658,22716,33210.50
1659,22732,33230.53
1660,22716,33250.56
1661,22652,33270.59
1662,22552,33290.62
1663,22452,33310.65
1664,22380,33330.68
1665,22356,33350.71
1666,22360,33370.74
1667,22384,33390.77
1668,22408,33410.80
1669,22436,33430.83
1670,22476,33450.86
1671,22504,33470.89
1672,22524,33490.92
1673,22524,33510.95
1674,22512,33530.98
1675,22504,33551.01
1676,22492,33571.04
1677,22488,33591.08
1678,22492,33611.11
1679,22496,33631.14
1680,22504,33651.17
1681,22516,33671.20
1682,22536,33691.23
1683,22560,33711.26
1684,22580,33731.29
1685,22608,33751.32
1686,22624,33771.35
1687,22640,33791.38
1688,22664,33811.41
1689,22688,33831.44
1690,22708,33851.47
1691,22708,33871.50
1692,22660,33891.53
1693,22568,33911.56
1694,22468,33931.59
1695,22396,33951.62
1696,22352,33971.65
1697,22344,33991.68
1698,22356,34011.71
1699,22380,34031.75
1700,22400,34051.78
1701,22428,34071.81
1702,22456,34091.84
1703,22480,34111.87
1704,22500,34131.90
1705,22508,34151.93
1706,22504,34171.96
1707,22496,34191.99
1708,22492,34212.02
1709,22496,34232.05
1710,22512,34252.08
1711,22520,34272.11
1712,22536,34292.14
1713,22548,34312.17
1714,22572,34332.20
1715,22596,34352.23
1716,22624,34372.26
1717,22644,34392.29
1718,22660,34412.32
1719,22676,34432.35
1720,22692,34452.38
1721,22716,34472.42
1722,22736,34492.45
1723,22728,34512.48
1724,22672,34532.51
1725,22572,34552.54
1726,22468,34572.57
1727,22400,34592.60
1728,22364,34612.63
1729,22364,34632.66
1730,22380,34652.69
1731,22408,34672.72
1732,22440,34692.75
1733,22476,34712.78
1734,22492,34732.81
1735,22504,34752.84
1736,22512,34772.87
1737,22508,34792.90
1738,22500,34812.93
1739,22484,34832.96
1740,22468,34852.99
1741,22472,34873.02
1742,22484,34893.05
1743,22500,34913.09
1744,22516,34933.12
1745,22532,34953.15
1746,22548,34973.18
1747,22564,34993.21
1748,22588,35013.24
1749,22608,35033.27
1750,22624,35053.30
1751,22644,35073.33
1752,22660,35093.36
1753,22652,35113.39
1754,22604,35133.42
1755,22516,35153.45
1756,22436,35173.48
1757,22376,35193.51
1758,22340,35213.54
1759,22340,35233.57
1760,22360,35253.60
1761,22384,35273.63
1762,22420,35293.66
1763,22464,35313.69
1764,22504,35333.72
1765,22536,35353.76
1766,22544,35373.79
1767,22536,35393.82
1768,22528,35413.85
1769,22524,35433.88
1770,22536,35453.91
1771,22548,35473.94
1772,22560,35493.97
1773,22572,35514.00
1774,22592,35534.03
1775,22612,35554.06
1776,22628,35574.09
1777,22648,35594.12
1778,22668,35614.15
1779,22692,35634.18
1780,22712,35654.21
1781,22736,35674.24
1782,22760,35694.27
1783,22788,35714.30
1784,22812,35734.33
1785,22840,35754.36
1786,22840,35774.40
1787,22788,35794.43
1788,22692,35814.46
1789,22592,35834.49
1790,22520,35854.52
1791,22480,35874.55
1792,22476,35894.58
1793,22500,35914.61
1794,22532,35934.64
1795,22564,35954.67
1796,22596,35974.70
1797,22628,35994.73
1798,22652,36014.76
1799,22668,36034.79
1800,22672,36054.82
1801,22668,36074.85
1802,22668,36094.88
1803,22672,36114.91
1804,22684,36134.94
1805,22692,36154.97
1806,22700,36175.00
1807,22712,36195.03
1808,22724,36215.07
1809,22736,36235.10
1810,22752,36255.13
1811,22760,36275.16
1812,22776,36295.19
1813,22788,36315.22
1814,22800,36335.25
1815,22808,36355.28
1816,22812,36375.31
1817,22820,36395.34
1818,22828,36415.37
1819,22844,36435.40
1820,22828,36455.43
1821,22772,36475.46
1822,22680,36495.49
1823,22584,36515.52
1824,22520,36535.55
1825,22488,36555.58
1826,22488,36575.61
1827,22504,36595.64
1828,22532,36615.67
1829,22568,36635.70
1830,22600,36655.74
1831,22640,36675.77
1832,22660,36695.80
1833,22672,36715.83
1834,22676,36735.86
1835,22668,36755.89
1836,22660,36775.92
1837,22644,36795.95
1838,22620,36815.98
1839,22604,36836.01
1840,22604,36856.04
1841,22616,36876.07
1842,22628,36896.10
1843,22648,36916.13
1844,22668,36936.16
1845,22688,36956.19
1846,22708,36976.22
1847,22728,36996.25
1848,22756,37016.28
1849,22780,37036.31
1850,22800,37056.34
1851,22816,37076.37
1852,22832,37096.41
1853,22848,37116.44
1854,22848,37136.47
1855,22808,37156.50
1856,22732,37176.53
1857,22644,37196.56
1858,22576,37216.59
1859,22540,37236.62
1860,22544,37256.65
1861,22560,37276.68
1862,22596,37296.71
1863,22640,37316.74
1864,22680,37336.77
1865,22720,37356.80
1866,22748,37376.83
1867,22768,37396.86
1868,22768,37416.89
1869,22760,37436.92
1870,22752,37456.95
1871,22744,37476.98
1872,22740,37497.01
1873,22744,37517.04
1874,22760,37537.08
1875,22776,37557.11
1876,22800,37577.14
1877,22820,37597.17
1878,22844,37617.20
1879,22868,37637.23
1880,22884,37657.26
1881,22900,37677.29
1882,22916,37697.32
1883,22928,37717.35
1884,22944,37737.38
1885,22936,37757.41
1886,22892,37777.44
1887,22804,37797.47
1888,22704,37817.50
1889,22620,37837.53
1890,22568,37857.56
1891,22556,37877.59
1892,22576,37897.62
1893,22612,37917.65
1894,22648,37937.68
1895,22692,37957.71
1896,22728,37977.75
1897,22756,37997.78
1898,22772,38017.81
1899,22768,38037.84
1900,22760,38057.87
1901,22748,38077.90
1902,22744,38097.93
1903,22752,38117.96
1904,22760,38137.99
1905,22776,38158.02
1906,22788,38178.05
1907,22804,38198.08
1908,22828,38218.11
1909,22856,38238.14
1910,22876,38258.17
1911,22888,38278.20
1912,22904,38298.23
1913,22928,38318.26
1914,22948,38338.29
1915,22980,38358.32
1916,22984,38378.35
1917,22940,38398.38
1918,22848,38418.42
1919,22744,38438.45
1920,22664,38458.48
1921,22620,38478.51
1922,22608,38498.54
1923,22616,38518.57
1924,22644,38538.60
1925,22680,38558.63
1926,22716,38578.66
1927,22756,38598.69
1928,22784,38618.72
1929,22804,38638.75
1930,22808,38658.78
1931,22800,38678.81
1932,22792,38698.84
1933,22796,38718.87
1934,22800,38738.90
1935,22808,38758.93
1936,22824,38778.96
1937,22836,38798.99
1938,22856,38819.02
1939,22880,38839.05
1940,22908,38859.09
1941,22932,38879.12
1942,22952,38899.15
1943,22972,38919.18
1944,22988,38939.21
1945,23012,38959.24
1946,23028,38979.27
1947,23020,38999.30
1948,22960,39019.33
1949,22868,39039.36
1950,22772,39059.39
1951,22696,39079.42
1952,22656,39099.45
1953,22652,39119.48
1954,22668,39139.51
1955,22692,39159.54
1956,22724,39179.57
1957,22752,39199.60
1958,22780,39219.63
1959,22808,39239.66
1960,22816,39259.69
1961,22816,39279.72
1962,22812,39299.76
1963,22804,39319.79
1964,22792,39339.82
1965,22792,39359.85
1966,22800,39379.88
1967,22812,39399.91
1968,22832,39419.94
1969,22856,39439.97
1970,22880,39460.00
1971,22904,39480.03
1972,22928,39500.06
1973,22952,39520.09
1974,22976,39540.12
1975,22996,39560.15
1976,23016,39580.18
1977,23016,39600.21
1978,22972,39620.24
1979,22892,39640.27
1980,22800,39660.30
1981,22724,39680.33
1982,22680,39700.36
1983,22668,39720.39
1984,22680,39740.43
1985,22704,39760.46
1986,22732,39780.49
1987,22772,39800.52
1988,22804,39820.55
1989,22828,39840.58
1990,22848,39860.61
1991,22844,39880.64
1992,22828,39900.67
1993,22812,39920.70
1994,22804,39940.73
1995,22796,39960.76
1996,22800,39980.79
1997,22812,40000.82
1998,22820,40020.85
1999,22832,40040.88
2000,22852,40060.91
2001,22868,40080.94
2002,22888,40100.97
2003,22908,40121.00
2004,22932,40141.03
2005,22948,40161.06
2006,22940,40181.10
2007,22888,40201.13
2008,22800,40221.16
2009,22716,40241.19
2010,22652,40261.22
2011,22616,40281.25
2012,22608,40301.28
2013,22620,40321.31
2014,22636,40341.34
2015,22664,40361.37
2016,22696,40381.40
2017,22720,40401.43
2018,22736,40421.46
2019,22736,40441.49
2020,22736,40461.52
2021,22728,40481.55
2022,22728,40501.58
2023,22732,40521.61
2024,22744,40541.64
2025,22760,40561.67
2026,22784,40581.70
2027,22812,40601.73
2028,22836,40621.77
2029,22860,40641.80
2030,22880,40661.83
2031,22892,40681.86
2032,22912,40701.89
2033,22936,40721.92
2034,22956,40741.95
2035,22940,40761.98
2036,22872,40782.01
2037,22780,40802.04
2038,22680,40822.07
2039,22616,40842.10
2040,22584,40862.13
2041,22580,40882.16
2042,22596,40902.19
2043,22624,40922.22
2044,22660,40942.25
2045,22692,40962.28
2046,22724,40982.31
2047,22744,41002.34
2048,22756,41022.37
2049,22756,41042.41
2050,22744,41062.44
2051,22732,41082.47
2052,22724,41102.50
2053,22728,41122.53
2054,22736,41142.56
2055,22752,41162.59
2056,22768,41182.62
2057,22792,41202.65
2058,22812,41222.68
2059,22836,41242.71
2060,22860,41262.74
2061,22884,41282.77
2062,22904,41302.80
2063,22928,41322.83
2064,22948,41342.86
2065,22948,41362.89
2066,22904,41382.92
2067,22816,41402.95
2068,22716,41422.98
2069,22640,41443.01
2070,22592,41463.04
2071,22580,41483.08
2072,22596,41503.11
2073,22632,41523.14
2074,22664,41543.17
2075,22700,41563.20
2076,22728,41583.23
2077,22752,41603.26
2078,22764,41623.29
2079,22768,41643.32
2080,22768,41663.35
2081,22760,41683.38
2082,22756,41703.41
2083,22756,41723.44
2084,22764,41743.47
2085,22784,41763.50
2086,22800,41783.53
2087,22820,41803.56
2088,22836,41823.59
2089,22856,41843.62
2090,22872,41863.65
2091,22888,41883.68
2092,22896,41903.71
2093,22916,41923.75
2094,22928,41943.78
2095,22948,41963.81
2096,22940,41983.84
2097,22880,42003.87
2098,22784,42023.90
2099,22688,42043.93
2100,22616,42063.96
2101,22584,42083.99
2102,22580,42104.02
2103,22604,42124.05
2104,22632,42144.08
2105,22664,42164.11
2106,22700,42184.14
2107,22732,42204.17
2108,22756,42224.20
2109,22772,42244.23
2110,22772,42264.26
2111,22764,42284.29
2112,22748,42304.32
2113,22744,42324.35
2114,22748,42344.38
2115,22756,42364.42
2116,22772,42384.45
2117,22788,42404.48
2118,22808,42424.51
2119,22824,42444.54
2120,22844,42464.57
2121,22864,42484.60
2122,22880,42504.63
2123,22900,42524.66
2124,22920,42544.69
2125,22928,42564.72
2126,22908,42584.75
2127,22836,42604.78
2128,22740,42624.81
2129,22656,42644.84
2130,22604,42664.87
2131,22584,42684.90
2132,22588,42704.93
2133,22608,42724.96
2134,22628,42744.99
2135,22648,42765.02
2136,22668,42785.05
2137,22684,42805.09
2138,22684,42825.12
2139,22680,42845.15
2140,22680,42865.18
2141,22680,42885.21
2142,22680,42905.24
2143,22688,42925.27
2144,22700,42945.30
2145,22720,42965.33
2146,22740,42985.36
2147,22756,43005.39
2148,22776,43025.42
2149,22792,43045.45
2150,22808,43065.48
2151,22820,43085.51
2152,22844,43105.54
2153,22864,43125.57
2154,22884,43145.60
2155,22896,43165.63
2156,22872,43185.66
2157,22804,43205.69
2158,22708,43225.72
2159,22628,43245.76
2160,22572,43265.79
2161,22556,43285.82
2162,22568,43305.85
2163,22596,43325.88
2164,22636,43345.91
2165,22680,43365.94
2166,22720,43385.97
2167,22748,43406.00
2168,22760,43426.03
2169,22764,43446.06
2170,22764,43466.09
2171,22760,43486.12
2172,22760,43506.15
2173,22764,43526.18
2174,22772,43546.21
2175,22784,43566.24
2176,22804,43586.27
2177,22824,43606.30
2178,22840,43626.33
2179,22856,43646.36
2180,22868,43666.39
2181,22888,43686.43
2182,22904,43706.46
2183,22924,43726.49
2184,22940,43746.52
2185,22956,43766.55
2186,22972,43786.58
2187,22992,43806.61
2188,23008,43826.64
2189,23012,43846.67
2190,22964,43866.70
2191,22864,43886.73
2192,22752,43906.76
2193,22664,43926.79
2194,22616,43946.82
2195,22604,43966.85
2196,22616,43986.88
2197,22648,44006.91
2198,22680,44026.94
2199,22712,44046.97
2200,22748,44067.00
2201,22780,44087.03
2202,22792,44107.06
2203,22800,44127.10
2204,22800,44147.13
2205,22792,44167.16
2206,22788,44187.19
2207,22796,44207.22
2208,22808,44227.25
2209,22812,44247.28
2210,22828,44267.31
2211,22844,44287.34
2212,22868,44307.37
2213,22888,44327.40
2214,22908,44347.43
2215,22928,44367.46
2216,22948,44387.49
2217,22960,44407.52
2218,22980,44427.55
2219,22992,44447.58
2220,23004,44467.61
2221,23020,44487.64
2222,22992,44507.67
2223,22916,44527.70
2224,22812,44547.73
2225,22724,44567.77
2226,22664,44587.80
2227,22640,44607.83
2228,22644,44627.86
2229,22668,44647.89
2230,22700,44667.92
2231,22740,44687.95
2232,22772,44707.98
2233,22808,44728.01
2234,22824,44748.04
2235,22832,44768.07
2236,22832,44788.10
2237,22824,44808.13
2238,22812,44828.16
2239,22804,44848.19
2240,22800,44868.22
2241,22816,44888.25
2242,22832,44908.28
2243,22852,44928.31
2244,22868,44948.34
2245,22884,44968.37
2246,22908,44988.40
2247,22916,45008.44
2248,22932,45028.47
2249,22944,45048.50
2250,22952,45068.53
2251,22964,45088.56
2252,22960,45108.59
2253,22904,45128.62
2254,22800,45148.65
2255,22696,45168.68
2256,22616,45188.71
2257,22572,45208.74
2258,22572,45228.77
2259,22600,45248.80
2260,22648,45268.83
2261,22688,45288.86
2262,22732,45308.89
2263,22772,45328.92
2264,22796,45348.95
2265,22808,45368.98
2266,22804,45389.01
2267,22796,45409.04
2268,22784,45429.07
2269,22776,45449.11
2270,22780,45469.14
2271,22788,45489.17
2272,22800,45509.20
2273,22820,45529.23
2274,22840,45549.26
2275,22860,45569.29
2276,22884,45589.32
2277,22904,45609.35
2278,22924,45629.38
2279,22948,45649.41
2280,22968,45669.44
2281,22992,45689.47
2282,23016,45709.50
2283,23028,45729.53
2284,22992,45749.56
2285,22900,45769.59
2286,22784,45789.62
2287,22684,45809.65
2288,22624,45829.68
2289,22604,45849.71
2290,22620,45869.75
2291,22648,45889.78
2292,22684,45909.81
2293,22720,45929.84
2294,22760,45949.87
2295,22792,45969.90
2296,22816,45989.93
2297,22824,46009.96
2298,22820,46029.99
2299,22816,46050.02
2300,22808,46070.05
2301,22808,46090.08
2302,22812,46110.11
2303,22828,46130.14
2304,22856,46150.17
2305,22884,46170.20
2306,22904,46190.23
2307,22928,46210.26
2308,22948,46230.29
2309,22968,46250.32
2310,22988,46270.35
2311,23008,46290.38
2312,23032,46310.42
2313,23052,46330.45
2314,23072,46350.48
2315,23060,46370.51
2316,22992,46390.54
2317,22880,46410.57
2318,22764,46430.60
2319,22676,46450.63
2320,22628,46470.66
2321,22620,46490.69
2322,22636,46510.72
2323,22668,46530.75
2324,22704,46550.78
2325,22744,46570.81
2326,22780,46590.84
2327,22812,46610.87
2328,22828,46630.90
2329,22832,46650.93
2330,22832,46670.96
2331,22824,46690.99
2332,22820,46711.02
2333,22820,46731.05
2334,22824,46751.09
2335,22836,46771.12
2336,22856,46791.15
2337,22876,46811.18
2338,22896,46831.21
2339,22920,46851.24
2340,22948,46871.27
2341,22968,46891.30
2342,22992,46911.33
2343,23012,46931.36
2344,23028,46951.39
2345,23032,46971.42
2346,22980,46991.45
2347,22884,47011.48
2348,22780,47031.51
2349,22692,47051.54
2350,22640,47071.57
2351,22624,47091.60
2352,22644,47111.63
2353,22676,47131.66
2354,22712,47151.69
2355,22752,47171.72
2356,22792,47191.76
2357,22824,47211.79
2358,22836,47231.82
2359,22836,47251.85
2360,22824,47271.88
2361,22812,47291.91
2362,22792,47311.94
2363,22788,47331.97
2364,22796,47352.00
2365,22808,47372.03
2366,22828,47392.06
2367,22848,47412.09
2368,22860,47432.12
2369,22872,47452.15
2370,22888,47472.18
2371,22900,47492.21
2372,22916,47512.24
2373,22932,47532.27
2374,22932,47552.30
2375,22884,47572.33
2376,22784,47592.36
2377,22668,47612.39
2378,22576,47632.43
2379,22524,47652.46
2380,22516,47672.49
2381,22540,47692.52
2382,22580,47712.55
2383,22628,47732.58
2384,22688,47752.61
2385,22732,47772.64
2386,22772,47792.67
2387,22792,47812.70
2388,22796,47832.73
2389,22788,47852.76
2390,22780,47872.79
2391,22768,47892.82
2392,22772,47912.85
2393,22784,47932.88
2394,22800,47952.91
2395,22824,47972.94
2396,22856,47992.97
2397,22880,48013.00
2398,22904,48033.03
2399,22928,48053.06
2400,22952,48073.10
2401,22972,48093.13
2402,23000,48113.16
2403,23020,48133.19
2404,23024,48153.22
2405,22968,48173.25
2406,22868,48193.28
2407,22752,48213.31
2408,22660,48233.34
2409,22608,48253.37
2410,22596,48273.40
2411,22612,48293.43
2412,22640,48313.46
2413,22680,48333.49
2414,22720,48353.52
2415,22764,48373.55
2416,22800,48393.58
2417,22820,48413.61
2418,22832,48433.64
2419,22828,48453.67
2420,22820,48473.70
2421,22812,48493.73
2422,22808,48513.77
2423,22820,48533.80
2424,22836,48553.83
2425,22860,48573.86
2426,22884,48593.89
2427,22908,48613.92
2428,22936,48633.95
2429,22960,48653.98
2430,22984,48674.01
2431,23004,48694.04
2432,23028,48714.07
2433,23048,48734.10
2434,23072,48754.13
2435,23060,48774.16
2436,22992,48794.19
2437,22876,48814.22
2438,22756,48834.25
2439,22664,48854.28
2440,22616,48874.31
2441,22604,48894.34
2442,22620,48914.37
2443,22652,48934.40
2444,22688,48954.44
2445,22728,48974.47
2446,22768,48994.50
2447,22800,49014.53
2448,22820,49034.56
2449,22820,49054.59
2450,22812,49074.62
2451,22804,49094.65
2452,22796,49114.68
2453,22796,49134.71
2454,22804,49154.74
2455,22816,49174.77
2456,22832,49194.80
2457,22848,49214.83
2458,22868,49234.86
2459,22888,49254.89
2460,22908,49274.92
2461,22932,49294.95
2462,22960,49314.98
2463,22984,49335.01
2464,23000,49355.04
2465,22976,49375.07
2466,22896,49395.11
2467,22788,49415.14
2468,22688,49435.17
2469,22620,49455.20
2470,22596,49475.23
2471,22604,49495.26
2472,22636,49515.29
2473,22676,49535.32
2474,22720,49555.35
2475,22776,49575.38
2476,22816,49595.41
2477,22840,49615.44
2478,22848,49635.47
2479,22840,49655.50
2480,22828,49675.53
2481,22812,49695.56
2482,22804,49715.59
2483,22808,49735.62
2484,22812,49755.65
2485,22828,49775.68
2486,22844,49795.71
2487,22860,49815.74
2488,22876,49835.78
2489,22888,49855.81
2490,22904,49875.84
2491,22912,49895.87
2492,22928,49915.90
2493,22928,49935.93
2494,22872,49955.96
2495,22764,49975.99
2496,22652,49996.02
2497,22564,50016.05
2498,22524,50036.08
2499,22516,50056.11
2500,22536,50076.14
2501,22576,50096.17
2502,22620,50116.20
2503,22676,50136.23
2504,22724,50156.26
2505,22760,50176.29
2506,22784,50196.32
2507,22784,50216.35
2508,22776,50236.38
2509,22760,50256.41
2510,22756,50276.45
2511,22756,50296.48
2512,22768,50316.51
2513,22788,50336.54
2514,22812,50356.57
2515,22836,50376.60
2516,22860,50396.63
2517,22880,50416.66
2518,22904,50436.69
2519,22928,50456.72
2520,22952,50476.75
2521,22980,50496.78
2522,22988,50516.81
2523,22944,50536.84
2524,22844,50556.87
2525,22728,50576.90
2526,22628,50596.93
2527,22572,50616.96
2528,22552,50636.99
2529,22568,50657.02
2530,22600,50677.05
2531,22640,50697.08
2532,22684,50717.12
2533,22720,50737.15
2534,22760,50757.18
2535,22780,50777.21
2536,22788,50797.24
2537,22788,50817.27
2538,22776,50837.30
2539,22768,50857.33
2540,22768,50877.36
2541,22772,50897.39
2542,22788,50917.42
2543,22808,50937.45
2544,22828,50957.48
2545,22848,50977.51
2546,22868,50997.54
2547,22888,51017.57
2548,22904,51037.60
2549,22932,51057.63
2550,22956,51077.66
2551,22972,51097.69
2552,22944,51117.72
2553,22852,51137.76
2554,22732,51157.79
2555,22624,51177.82
2556,22552,51197.85
2557,22528,51217.88
2558,22532,51237.91
2559,22560,51257.94
2560,22596,51277.97
2561,22640,51298.00
2562,22688,51318.03
2563,22732,51338.06
2564,22752,51358.09
2565,22764,51378.12
2566,22760,51398.15
2567,22752,51418.18
2568,22744,51438.21
2569,22736,51458.24
2570,22740,51478.27
2571,22752,51498.30
2572,22768,51518.33
2573,22788,51538.36
2574,22804,51558.39
2575,22824,51578.43
2576,22852,51598.46
2577,22872,51618.49
2578,22900,51638.52
2579,22916,51658.55
2580,22904,51678.58
2581,22824,51698.61
2582,22712,51718.64
2583,22608,51738.67
2584,22528,51758.70
2585,22504,51778.73
2586,22512,51798.76
2587,22540,51818.79
2588,22580,51838.82
2589,22624,51858.85
2590,22668,51878.88
2591,22704,51898.91
2592,22728,51918.94
2593,22740,51938.97
2594,22732,51959.00
2595,22716,51979.03
2596,22704,51999.06
2597,22696,52019.10
2598,22700,52039.13
2599,22712,52059.16
2600,22728,52079.19
2601,22744,52099.22
2602,22764,52119.25
2603,22788,52139.28
2604,22808,52159.31
2605,22836,52179.34
2606,22860,52199.37
2607,22876,52219.40
2608,22836,52239.43
2609,22748,52259.46
2610,22636,52279.49
2611,22540,52299.52
2612,22480,52319.55
2613,22460,52339.58
2614,22472,52359.61
2615,22500,52379.64
2616,22532,52399.67
2617,22568,52419.70
2618,22608,52439.73
2619,22632,52459.77
2620,22644,52479.80
2621,22640,52499.83
2622,22632,52519.86
2623,22628,52539.89
2624,22624,52559.92
2625,22640,52579.95
2626,22656,52599.98
2627,22672,52620.01
2628,22692,52640.04
2629,22716,52660.07
2630,22732,52680.10
2631,22748,52700.13
2632,22768,52720.16
2633,22784,52740.19
2634,22792,52760.22
2635,22752,52780.25
2636,22660,52800.28
2637,22560,52820.31
2638,22480,52840.34
2639,22432,52860.37
2640,22416,52880.40
2641,22432,52900.44
2642,22468,52920.47
2643,22508,52940.50
2644,22552,52960.53
2645,22600,52980.56
2646,22628,53000.59
2647,22648,53020.62
2648,22652,53040.65
2649,22652,53060.68
2650,22648,53080.71
2651,22644,53100.74
2652,22652,53120.77
2653,22668,53140.80
2654,22688,53160.83
2655,22704,53180.86
2656,22724,53200.89
2657,22748,53220.92
2658,22772,53240.95
2659,22796,53260.98
2660,22816,53281.01
2661,22824,53301.04
2662,22792,53321.07
2663,22704,53341.11
2664,22608,53361.14
2665,22520,53381.17
2666,22476,53401.20
2667,22460,53421.23
2668,22472,53441.26
2669,22500,53461.29
2670,22544,53481.32
2671,22588,53501.35
2672,22624,53521.38
2673,22656,53541.41
2674,22676,53561.44
2675,22676,53581.47
2676,22676,53601.50
2677,22672,53621.53
2678,22668,53641.56
2679,22668,53661.59
2680,22672,53681.62
2681,22684,53701.65
2682,22696,53721.68
2683,22712,53741.71
2684,22724,53761.74
2685,22744,53781.78
2686,22768,53801.81
2687,22784,53821.84
2688,22788,53841.87
2689,22740,53861.90
2690,22648,53881.93
2691,22540,53901.96
2692,22456,53921.99
2693,22408,53942.02
2694,22404,53962.05
2695,22420,53982.08
2696,22452,54002.11
2697,22488,54022.14
2698,22532,54042.17
2699,22568,54062.20
2700,22604,54082.23
2701,22620,54102.26
2702,22624,54122.29
2703,22620,54142.32
2704,22608,54162.35
2705,22604,54182.38
2706,22608,54202.41
2707,22624,54222.45
2708,22644,54242.48
2709,22664,54262.51
2710,22688,54282.54
2711,22704,54302.57
2712,22732,54322.60
2713,22756,54342.63
2714,22776,54362.66
2715,22756,54382.69
2716,22688,54402.72
2717,22592,54422.75
2718,22508,54442.78
2719,22448,54462.81
2720,22424,54482.84
2721,22436,54502.87
2722,22460,54522.90
2723,22496,54542.93
2724,22540,54562.96
2725,22588,54582.99
2726,22628,54603.02
2727,22656,54623.05
2728,22656,54643.08
2729,22656,54663.12
2730,22640,54683.15
2731,22620,54703.18
2732,22612,54723.21
2733,22620,54743.24
2734,22632,54763.27
2735,22652,54783.30
2736,22672,54803.33
2737,22700,54823.36
2738,22728,54843.39
2739,22768,54863.42
2740,22804,54883.45
2741,22812,54903.48
2742,22780,54923.51
2743,22720,54943.54
2744,22660,54963.57
2745,22624,54983.60
2746,22616,55003.63
2747,22636,55023.66
2748,22664,55043.69
2749,22708,55063.72
2750,22756,55083.75
2751,22808,55103.79
2752,22852,55123.82
2753,22892,55143.85
2754,22916,55163.88
2755,22928,55183.91
2756,22940,55203.94
2757,22952,55223.97
2758,22972,55244.00
2759,22992,55264.03
2760,23020,55284.06
2761,23052,55304.09
2762,23080,55324.12
2763,23112,55344.15
2764,23148,55364.18
2765,23184,55384.21
2766,23212,55404.24
2767,23220,55424.27
2768,23188,55444.30
2769,23136,55464.33
2770,23084,55484.36
2771,23048,55504.39
2772,23032,55524.42
2773,23040,55544.46
2774,23064,55564.49
2775,23100,55584.52
2776,23136,55604.55
2777,23180,55624.58
2778,23224,55644.61
2779,23252,55664.64
2780,23276,55684.67
2781,23292,55704.70
2782,23304,55724.73
2783,23324,55744.76
2784,23336,55764.79
2785,23356,55784.82
2786,23376,55804.85
2787,23400,55824.88
2788,23428,55844.91
2789,23456,55864.94
2790,23488,55884.97
2791,23516,55905.00
2792,23548,55925.03
2793,23568,55945.06
2794,23560,55965.09
2795,23532,55985.13
2796,23496,56005.16
2797,23460,56025.19
2798,23432,56045.22
2799,23424,56065.25
2800,23428,56085.28
2801,23440,56105.31
2802,23468,56125.34
2803,23492,56145.37
2804,23516,56165.40
2805,23540,56185.43
2806,23560,56205.46
2807,23572,56225.49
2808,23584,56245.52
2809,23596,56265.55
2810,23608,56285.58
2811,23620,56305.61
2812,23640,56325.64
2813,23656,56345.67
2814,23676,56365.70
2815,23692,56385.73
2816,23712,56405.77
2817,23736,56425.80
2818,23760,56445.83
2819,23780,56465.86
2820,23800,56485.89
2821,23796,56505.92
2822,23776,56525.95
2823,23752,56545.98
2824,23720,56566.01
2825,23700,56586.04
2826,23696,56606.07
2827,23700,56626.10
2828,23712,56646.13
2829,23732,56666.16
2830,23752,56686.19
2831,23772,56706.22
2832,23800,56726.25
2833,23812,56746.28
2834,23824,56766.31
2835,23832,56786.34
2836,23836,56806.37
2837,23844,56826.40
2838,23852,56846.44
2839,23860,56866.47
2840,23872,56886.50
2841,23884,56906.53
2842,23900,56926.56
2843,23916,56946.59
2844,23932,56966.62
2845,23952,56986.65
2846,23968,57006.68
2847,23984,57026.71
2848,23988,57046.74
2849,23980,57066.77
2850,23960,57086.80
2851,23924,57106.83
2852,23900,57126.86
2853,23884,57146.89
2854,23876,57166.92
2855,23880,57186.95
2856,23888,57206.98
2857,23900,57227.01
2858,23916,57247.04
2859,23936,57267.07
2860,23952,57287.11
2861,23964,57307.14
2862,23972,57327.17
2863,23980,57347.20
2864,23984,57367.23
2865,23996,57387.26
2866,24004,57407.29
2867,24020,57427.32
2868,24036,57447.35
2869,24052,57467.38
2870,24072,57487.41
2871,24092,57507.44
2872,24108,57527.47
2873,24124,57547.50
2874,24144,57567.53
2875,24164,57587.56
2876,24180,57607.59
2877,24188,57627.62
2878,24176,57647.65
2879,24160,57667.68
2880,24148,57687.71
2881,24140,57707.74
2882,24148,57727.78
2883,24156,57747.81
2884,24164,57767.84
2885,24184,57787.87
2886,24204,57807.90
2887,24220,57827.93
2888,24240,57847.96
2889,24252,57867.99
2890,24268,57888.02
2891,24276,57908.05
2892,24284,57928.08
2893,24296,57948.11
2894,24304,57968.14
2895,24316,57988.17
2896,24324,58008.20
2897,24336,58028.23
2898,24352,58048.26
2899,24356,58068.29
2900,24372,58088.32
2901,24380,58108.35
2902,24396,58128.38
2903,24408,58148.41
2904,24420,58168.45
2905,24432,58188.48
2906,24448,58208.51
2907,24448,58228.54
2908,24436,58248.57
2909,24424,58268.60
2910,24416,58288.63
2911,24412,58308.66
2912,24416,58328.69
2913,24420,58348.72
2914,24436,58368.75
2915,24448,58388.78
2916,24460,58408.81
2917,24476,58428.84
2918,24488,58448.87
2919,24496,58468.90
2920,24504,58488.93
2921,24512,58508.96
2922,24516,58528.99
2923,24524,58549.02
2924,24528,58569.05
2925,24536,58589.08
2926,24540,58609.12
2927,24552,58629.15
2928,24568,58649.18
2929,24576,58669.21
2930,24588,58689.24
2931,24596,58709.27
2932,24600,58729.30
2933,24612,58749.33
2934,24620,58769.36
2935,24628,58789.39
2936,24640,58809.42
2937,24644,58829.45
2938,24640,58849.48
2939,24632,58869.51
2940,24628,58889.54
2941,24624,58909.57
2942,24624,58929.60
2943,24632,58949.63
2944,24640,58969.66
2945,24648,58989.69
2946,24660,59009.72
2947,24664,59029.75
2948,24676,59049.79
2949,24680,59069.82
2950,24684,59089.85
2951,24688,59109.88
2952,24692,59129.91
2953,24696,59149.94
2954,24696,59169.97
2955,24704,59190.00
2956,24708,59210.03
2957,24712,59230.06
2958,24720,59250.09
2959,24728,59270.12
2960,24732,59290.15
2961,24744,59310.18
2962,24752,59330.21
2963,24760,59350.24
2964,24768,59370.27
2965,24776,59390.30
2966,24780,59410.33
2967,24784,59430.36
2968,24780,59450.39
2969,24780,59470.42
2970,24776,59490.46
2971,24776,59510.49
2972,24780,59530.52
2973,24788,59550.55
2974,24796,59570.58
2975,24804,59590.61
2976,24812,59610.64
2977,24824,59630.67
2978,24832,59650.70
2979,24836,59670.73
2980,24840,59690.76
2981,24840,59710.79
2982,24844,59730.82
2983,24848,59750.85
2984,24852,59770.88
2985,24860,59790.91
2986,24868,59810.94
2987,24876,59830.97
2988,24880,59851.00
2989,24888,59871.03
2990,24892,59891.06
2991,24900,59911.09
2992,24900,59931.13
2993,24904,59951.16
2994,24908,59971.19
2995,24912,59991.22
2996,24908,60011.25
2997,24900,60031.28
2998,24896,60051.31
2999,24888,60071.34
