Sample_Index,IR_Value,Timestamp_ms
0,21680,0.00
1,22504,21.21
2,23296,42.43
3,24080,63.64
4,24584,84.85
5,24848,106.07
6,25020,127.28
7,25152,148.49
8,25268,169.71
9,25376,190.92
10,25424,212.14
11,25348,233.35
12,25220,254.56
13,25060,275.78
14,24912,296.99
15,24796,318.20
16,24724,339.42
17,24676,360.63
18,24644,381.84
19,24628,403.06
20,24612,424.27
21,24604,445.48
22,24592,466.70
23,24572,487.91
24,24540,509.12
25,24520,530.34
26,24484,551.55
27,24440,572.76
28,24388,593.98
29,24336,615.19
30,24292,636.41
31,24244,657.62
32,24196,678.83
33,24148,700.05
34,24108,721.26
35,24072,742.47
36,24044,763.69
37,24032,784.90
38,24020,806.11
39,24028,827.33
40,24032,848.54
41,24040,869.75
42,24032,890.97
43,23972,912.18
44,23872,933.39
45,23748,954.61
46,23640,975.82
47,23572,997.03
48,23540,1018.25
49,23540,1039.46
50,23556,1060.68
51,23580,1081.89
52,23620,1103.10
53,23660,1124.32
54,23696,1145.53
55,23724,1166.74
56,23748,1187.96
57,23772,1209.17
58,23784,1230.38
59,23796,1251.60
60,23808,1272.81
61,23828,1294.02
62,23844,1315.24
63,23856,1336.45
64,23872,1357.66
65,23892,1378.88
66,23912,1400.09
67,23932,1421.31
68,23952,1442.52
69,23976,1463.73
70,23996,1484.95
71,24020,1506.16
72,24032,1527.37
73,24004,1548.59
74,23936,1569.80
75,23836,1591.01
76,23720,1612.23
77,23624,1633.44
78,23552,1654.65
79,23504,1675.87
80,23476,1697.08
81,23464,1718.29
82,23464,1739.51
83,23464,1760.72
84,23464,1781.93
85,23464,1803.15
86,23464,1824.36
87,23468,1845.58
88,23464,1866.79
89,23468,1888.00
90,23472,1909.22
91,23476,1930.43
92,23488,1951.64
93,23504,1972.86
94,23524,1994.07
95,23548,2015.28
96,23564,2036.50
97,23588,2057.71
98,23612,2078.92
99,23608,2100.14
100,23568,2121.35
101,23496,2142.56
102,23408,2163.78
103,23336,2184.99
104,23292,2206.20
105,23284,2227.42
106,23296,2248.63
107,23316,2269.85
108,23348,2291.06
109,23384,2312.27
110,23424,2333.49
111,23468,2354.70
112,23508,2375.91
113,23528,2397.13
114,23544,2418.34
115,23552,2439.55
116,23556,2460.77
117,23560,2481.98
118,23568,2503.19
119,23584,2524.41
120,23596,2545.62
121,23620,2566.83
122,23652,2588.05
123,23684,2609.26
124,23716,2630.47
125,23756,2651.69
126,23772,2672.90
127,23748,2694.12
128,23688,2715.33
129,23608,2736.54
130,23524,2757.76
131,23464,2778.97
132,23424,2800.18
133,23412,2821.40
134,23416,2842.61
135,23428,2863.82
136,23456,2885.04
137,23492,2906.25
138,23520,2927.46
139,23548,2948.68
140,23568,2969.89
141,23588,2991.10
142,23592,3012.32
143,23600,3033.53
144,23604,3054.75
145,23608,3075.96
146,23624,3097.17
147,23640,3118.39
148,23660,3139.60
149,23680,3160.81
150,23708,3182.03
151,23728,3203.24
152,23740,3224.45
153,23720,3245.67
154,23680,3266.88
155,23640,3288.09
156,23608,3309.31
157,23596,3330.52
158,23600,3351.73
159,23616,3372.95
160,23640,3394.16
161,23668,3415.37
162,23700,3436.59
163,23732,3457.80
164,23760,3479.02
165,23792,3500.23
166,23812,3521.44
167,23832,3542.66
168,23848,3563.87
169,23864,3585.08
170,23876,3606.30
171,23892,3627.51
172,23908,3648.72
173,23928,3669.94
174,23952,3691.15
175,23976,3712.36
176,24000,3733.58
177,24028,3754.79
178,24040,3776.00
179,24024,3797.22
180,23984,3818.43
181,23940,3839.64
182,23884,3860.86
183,23840,3882.07
184,23808,3903.29
185,23796,3924.50
186,23796,3945.71
187,23808,3966.93
188,23824,3988.14
189,23844,4009.35
190,23864,4030.57
191,23876,4051.78
192,23892,4072.99
193,23896,4094.21
194,23904,4115.42
195,23908,4136.63
196,23916,4157.85
197,23928,4179.06
198,23940,4200.27
199,23960,4221.49
200,23976,4242.70
201,23996,4263.92
202,24012,4285.13
203,24032,4306.34
204,24044,4327.56
205,24036,4348.77
206,24016,4369.98
207,23992,4391.20
208,23968,4412.41
209,23960,4433.62
210,23956,4454.84
211,23960,4476.05
212,23976,4497.26
213,23992,4518.48
214,24012,4539.69
215,24028,4560.90
216,24044,4582.12
217,24060,4603.33
218,24072,4624.54
219,24076,4645.76
220,24084,4666.97
221,24092,4688.19
222,24100,4709.40
223,24112,4730.61
224,24128,4751.83
225,24136,4773.04
226,24156,4794.25
227,24164,4815.47
228,24184,4836.68
229,24196,4857.89
230,24216,4879.11
231,24224,4900.32
232,24208,4921.53
233,24176,4942.75
234,24136,4963.96
235,24088,4985.17
236,24056,5006.39
237,24032,5027.60
238,24020,5048.81
239,24020,5070.03
240,24024,5091.24
241,24036,5112.46
242,24048,5133.67
243,24060,5154.88
244,24064,5176.10
245,24072,5197.31
246,24068,5218.52
247,24068,5239.74
248,24064,5260.95
249,24064,5282.16
250,24064,5303.38
251,24068,5324.59
252,24072,5345.80
253,24084,5367.02
254,24096,5388.23
255,24112,5409.44
256,24128,5430.66
257,24152,5451.87
258,24172,5473.08
259,24180,5494.30
260,24176,5515.51
261,24172,5536.73
262,24184,5557.94
263,24192,5579.15
264,24200,5600.37
265,24204,5621.58
266,24204,5642.79
267,24224,5664.01
268,24248,5685.22
269,24264,5706.43
270,24276,5727.65
271,24252,5748.86
272,24216,5770.07
273,24168,5791.29
274,24104,5812.50
275,24052,5833.71
276,23992,5854.93
277,23916,5876.14
278,23800,5897.36
279,23708,5918.57
280,23696,5939.78
281,23732,5961.00
282,23744,5982.21
283,23740,6003.42
284,23736,6024.64
285,23724,6045.85
286,23712,6067.06
287,23692,6088.28
288,23648,6109.49
289,23584,6130.70
290,23512,6151.92
291,23448,6173.13
292,23400,6194.34
293,23368,6215.56
294,23368,6236.77
295,23396,6257.98
296,23472,6279.20
297,23540,6300.41
298,23600,6321.63
299,23664,6342.84
300,23720,6364.05
301,23772,6385.27
302,23820,6406.48
303,23872,6427.69
304,23920,6448.91
305,23960,6470.12
306,24000,6491.33
307,24036,6512.55
308,24068,6533.76
309,24108,6554.97
310,24140,6576.19
311,24172,6597.40
312,24204,6618.61
313,24232,6639.83
314,24260,6661.04
315,24292,6682.25
316,24320,6703.47
317,24340,6724.68
318,24364,6745.90
319,24364,6767.11
320,24348,6788.32
321,24324,6809.54
322,24308,6830.75
323,24296,6851.96
324,24288,6873.18
325,24292,6894.39
326,24296,6915.60
327,24308,6936.82
328,24320,6958.03
329,24336,6979.24
330,24352,7000.46
331,24364,7021.67
332,24376,7042.88
333,24384,7064.10
334,24396,7085.31
335,24392,7106.53
336,24400,7127.74
337,24400,7148.95
338,24404,7170.17
339,24400,7191.38
340,24400,7212.59
341,24408,7233.81
342,24408,7255.02
343,24404,7276.23
344,24408,7297.45
345,24408,7318.66
346,24416,7339.87
347,24420,7361.09
348,24428,7382.30
349,24436,7403.51
350,24428,7424.73
351,24404,7445.94
352,24372,7467.15
353,24340,7488.37
354,24316,7509.58
355,24304,7530.80
356,24292,7552.01
357,24288,7573.22
358,24284,7594.44
359,24288,7615.65
360,24292,7636.86
361,24300,7658.08
362,24304,7679.29
363,24312,7700.50
364,24312,7721.72
365,24316,7742.93
366,24316,7764.14
367,24320,7785.36
368,24324,7806.57
369,24324,7827.78
370,24336,7849.00
371,24344,7870.21
372,24360,7891.42
373,24372,7912.64
374,24388,7933.85
375,24400,7955.07
376,24412,7976.28
377,24424,7997.49
378,24440,8018.71
379,24456,8039.92
380,24468,8061.13
381,24460,8082.35
382,24444,8103.56
383,24420,8124.77
384,24396,8145.99
385,24368,8167.20
386,24356,8188.41
387,24348,8209.63
388,24352,8230.84
389,24356,8252.05
390,24368,8273.27
391,24376,8294.48
392,24384,8315.70
393,24380,8336.91
394,24372,8358.12
395,24356,8379.34
396,24348,8400.55
397,24340,8421.76
398,24336,8442.98
399,24340,8464.19
400,24348,8485.40
401,24348,8506.62
402,24360,8527.83
403,24368,8549.04
404,24376,8570.26
405,24384,8591.47
406,24392,8612.68
407,24404,8633.90
408,24416,8655.11
409,24420,8676.32
410,24404,8697.54
411,24376,8718.75
412,24340,8739.97
413,24300,8761.18
414,24272,8782.39
415,24256,8803.61
416,24256,8824.82
417,24264,8846.03
418,24272,8867.25
419,24288,8888.46
420,24304,8909.67
421,24320,8930.89
422,24336,8952.10
423,24344,8973.31
424,24356,8994.53
425,24360,9015.74
426,24368,9036.95
427,24372,9058.17
428,24376,9079.38
429,24384,9100.59
430,24392,9121.81
431,24408,9143.02
432,24420,9164.24
433,24432,9185.45
434,24452,9206.66
435,24464,9227.88
436,24484,9249.09
437,24496,9270.30
438,24512,9291.52
439,24528,9312.73
440,24536,9333.94
441,24520,9355.16
442,24484,9376.37
443,24432,9397.58
444,24380,9418.80
445,24336,9440.01
446,24308,9461.22
447,24292,9482.44
448,24288,9503.65
449,24288,9524.86
450,24296,9546.08
451,24316,9567.29
452,24328,9588.51
453,24336,9609.72
454,24344,9630.93
455,24348,9652.15
456,24348,9673.36
457,24352,9694.57
458,24348,9715.79
459,24360,9737.00
460,24360,9758.21
461,24372,9779.43
462,24384,9800.64
463,24392,9821.85
464,24408,9843.07
465,24420,9864.28
466,24432,9885.49
467,24444,9906.71
468,24460,9927.92
469,24476,9949.14
470,24480,9970.35
471,24464,9991.56
472,24436,10012.78
473,24396,10033.99
474,24356,10055.20
475,24328,10076.42
476,24320,10097.63
477,24316,10118.84
478,24324,10140.06
479,24332,10161.27
480,24348,10182.48
481,24360,10203.70
482,24376,10224.91
483,24388,10246.12
484,24392,10267.34
485,24396,10288.55
486,24396,10309.76
487,24404,10330.98
488,24412,10352.19
489,24416,10373.41
490,24420,10394.62
491,24424,10415.83
492,24436,10437.05
493,24444,10458.26
494,24448,10479.47
495,24456,10500.69
496,24464,10521.90
497,24460,10543.11
498,24456,10564.33
499,24432,10585.54
500,24392,10606.75
501,24340,10627.97
502,24288,10649.18
503,24244,10670.39
504,24220,10691.61
505,24208,10712.82
506,24212,10734.03
507,24216,10755.25
508,24228,10776.46
509,24240,10797.68
510,24256,10818.89
511,24268,10840.10
512,24276,10861.32
513,24284,10882.53
514,24292,10903.74
515,24288,10924.96
516,24296,10946.17
517,24304,10967.38
518,24308,10988.60
519,24316,11009.81
520,24332,11031.02
521,24340,11052.24
522,24352,11073.45
523,24376,11094.66
524,24388,11115.88
525,24408,11137.09
526,24424,11158.31
527,24440,11179.52
528,24436,11200.73
529,24416,11221.95
530,24384,11243.16
531,24340,11264.37
532,24296,11285.59
533,24260,11306.80
534,24240,11328.01
535,24240,11349.23
536,24244,11370.44
537,24256,11391.65
538,24276,11412.87
539,24300,11434.08
540,24316,11455.29
541,24332,11476.51
542,24344,11497.72
543,24352,11518.93
544,24356,11540.15
545,24352,11561.36
546,24352,11582.58
547,24352,11603.79
548,24352,11625.00
549,24352,11646.22
550,24348,11667.43
551,24344,11688.64
552,24348,11709.86
553,24356,11731.07
554,24360,11752.28
555,24364,11773.50
556,24340,11794.71
557,24304,11815.92
558,24248,11837.14
559,24200,11858.35
560,24152,11879.56
561,24128,11900.78
562,24108,11921.99
563,24108,11943.20
564,24112,11964.42
565,24124,11985.63
566,24140,12006.85
567,24160,12028.06
568,24176,12049.27
569,24188,12070.49
570,24196,12091.70
571,24204,12112.91
572,24212,12134.13
573,24220,12155.34
574,24228,12176.55
575,24244,12197.77
576,24260,12218.98
577,24276,12240.19
578,24296,12261.41
579,24316,12282.62
580,24332,12303.83
581,24352,12325.05
582,24372,12346.26
583,24380,12367.47
584,24364,12388.69
585,24336,12409.90
586,24292,12431.12
587,24248,12452.33
588,24208,12473.54
589,24184,12494.76
590,24176,12515.97
591,24180,12537.18
592,24188,12558.40
593,24208,12579.61
594,24228,12600.82
595,24252,12622.04
596,24268,12643.25
597,24276,12664.46
598,24276,12685.68
599,24260,12706.89
600,24228,12728.10
601,24204,12749.32
602,24180,12770.53
603,24168,12791.75
604,24164,12812.96
605,24172,12834.17
606,24184,12855.39
607,24200,12876.60
608,24216,12897.81
609,24232,12919.03
610,24220,12940.24
611,24188,12961.45
612,24136,12982.67
613,24080,13003.88
614,24040,13025.09
615,24016,13046.31
616,24008,13067.52
617,24016,13088.73
618,24036,13109.95
619,24056,13131.16
620,24088,13152.37
621,24116,13173.59
622,24144,13194.80
623,24172,13216.02
624,24196,13237.23
625,24212,13258.44
626,24224,13279.66
627,24236,13300.87
628,24244,13322.08
629,24256,13343.30
630,24268,13364.51
631,24284,13385.72
632,24300,13406.94
633,24316,13428.15
634,24332,13449.36
635,24352,13470.58
636,24356,13491.79
637,24336,13513.00
638,24296,13534.22
639,24240,13555.43
640,24184,13576.64
641,24140,13597.86
642,24112,13619.07
643,24100,13640.29
644,24104,13661.50
645,24116,13682.71
646,24132,13703.93
647,24152,13725.14
648,24176,13746.35
649,24196,13767.57
650,24208,13788.78
651,24220,13809.99
652,24220,13831.21
653,24220,13852.42
654,24224,13873.63
655,24232,13894.85
656,24240,13916.06
657,24248,13937.27
658,24264,13958.49
659,24284,13979.70
660,24300,14000.92
661,24316,14022.13
662,24308,14043.34
663,24272,14064.56
664,24216,14085.77
665,24152,14106.98
666,24088,14128.20
667,24048,14149.41
668,24020,14170.62
669,24012,14191.84
670,24024,14213.05
671,24040,14234.26
672,24064,14255.48
673,24088,14276.69
674,24116,14297.90
675,24136,14319.12
676,24156,14340.33
677,24168,14361.54
678,24176,14382.76
679,24188,14403.97
680,24192,14425.19
681,24196,14446.40
682,24204,14467.61
683,24216,14488.83
684,24228,14510.04
685,24244,14531.25
686,24264,14552.47
687,24276,14573.68
688,24260,14594.89
689,24212,14616.11
690,24148,14637.32
691,24076,14658.53
692,24016,14679.75
693,23976,14700.96
694,23956,14722.17
695,23956,14743.39
696,23964,14764.60
697,23984,14785.81
698,24012,14807.03
699,24040,14828.24
700,24068,14849.46
701,24096,14870.67
702,24120,14891.88
703,24136,14913.10
704,24148,14934.31
705,24160,14955.52
706,24172,14976.74
707,24184,14997.95
708,24192,15019.16
709,24208,15040.38
710,24224,15061.59
711,24240,15082.80
712,24260,15104.02
713,24272,15125.23
714,24260,15146.44
715,24216,15167.66
716,24156,15188.87
717,24092,15210.08
718,24044,15231.30
719,24008,15252.51
720,23996,15273.73
721,23992,15294.94
722,24004,15316.15
723,24024,15337.37
724,24052,15358.58
725,24080,15379.79
726,24120,15401.01
727,24148,15422.22
728,24176,15443.43
729,24196,15464.65
730,24212,15485.86
731,24220,15507.07
732,24232,15528.29
733,24244,15549.50
734,24256,15570.71
735,24264,15591.93
736,24272,15613.14
737,24292,15634.36
738,24300,15655.57
739,24300,15676.78
740,24276,15698.00
741,24220,15719.21
742,24152,15740.42
743,24088,15761.64
744,24032,15782.85
745,23996,15804.06
746,23972,15825.28
747,23964,15846.49
748,23968,15867.70
749,23984,15888.92
750,24004,15910.13
751,24024,15931.34
752,24048,15952.56
753,24072,15973.77
754,24084,15994.98
755,24100,16016.20
756,24112,16037.41
757,24124,16058.63
758,24128,16079.84
759,24140,16101.05
760,24148,16122.27
761,24160,16143.48
762,24176,16164.69
763,24192,16185.91
764,24192,16207.12
765,24156,16228.33
766,24092,16249.55
767,24024,16270.76
768,23956,16291.97
769,23904,16313.19
770,23872,16334.40
771,23860,16355.61
772,23868,16376.83
773,23888,16398.04
774,23916,16419.25
775,23948,16440.47
776,23980,16461.68
777,24012,16482.90
778,24040,16504.11
779,24068,16525.32
780,24088,16546.54
781,24108,16567.75
782,24112,16588.96
783,24116,16610.18
784,24124,16631.39
785,24132,16652.60
786,24144,16673.82
787,24148,16695.03
788,24168,16716.24
789,24164,16737.46
790,24132,16758.67
791,24076,16779.88
792,24008,16801.10
793,23944,16822.31
794,23888,16843.53
795,23848,16864.74
796,23832,16885.95
797,23832,16907.17
798,23848,16928.38
799,23876,16949.59
800,23916,16970.81
801,23952,16992.02
802,23980,17013.23
803,24016,17034.45
804,24044,17055.66
805,24068,17076.87
806,24084,17098.09
807,24096,17119.30
808,24100,17140.51
809,24108,17161.73
810,24116,17182.94
811,24124,17204.15
812,24136,17225.37
813,24148,17246.58
814,24132,17267.80
815,24088,17289.01
816,24020,17310.22
817,23944,17331.44
818,23880,17352.65
819,23828,17373.86
820,23800,17395.08
821,23788,17416.29
822,23792,17437.50
823,23812,17458.72
824,23828,17479.93
825,23856,17501.14
826,23888,17522.36
827,23912,17543.57
828,23932,17564.78
829,23944,17586.00
830,23952,17607.21
831,23956,17628.42
832,23952,17649.64
833,23956,17670.85
834,23960,17692.07
835,23964,17713.28
836,23976,17734.49
837,23984,17755.71
838,23976,17776.92
839,23928,17798.13
840,23856,17819.35
841,23772,17840.56
842,23704,17861.77
843,23652,17882.99
844,23624,17904.20
845,23612,17925.41
846,23624,17946.63
847,23640,17967.84
848,23672,17989.05
849,23708,18010.27
850,23736,18031.48
851,23768,18052.70
852,23800,18073.91
853,23820,18095.12
854,23836,18116.34
855,23844,18137.55
856,23848,18158.76
857,23856,18179.98
858,23864,18201.19
859,23872,18222.40
860,23884,18243.62
861,23892,18264.83
862,23876,18286.04
863,23824,18307.26
864,23752,18328.47
865,23664,18349.68
866,23596,18370.90
867,23540,18392.11
868,23516,18413.32
869,23508,18434.54
870,23520,18455.75
871,23540,18476.97
872,23568,18498.18
873,23600,18519.39
874,23636,18540.61
875,23672,18561.82
876,23704,18583.03
877,23732,18604.25
878,23760,18625.46
879,23772,18646.67
880,23788,18667.89
881,23796,18689.10
882,23808,18710.31
883,23816,18731.53
884,23828,18752.74
885,23840,18773.95
886,23840,18795.17
887,23800,18816.38
888,23732,18837.59
889,23660,18858.81
890,23596,18880.02
891,23544,18901.24
892,23520,18922.45
893,23512,18943.66
894,23524,18964.88
895,23540,18986.09
896,23568,19007.30
897,23604,19028.52
898,23640,19049.73
899,23680,19070.94
900,23708,19092.16
901,23736,19113.37
902,23760,19134.58
903,23772,19155.80
904,23780,19177.01
905,23788,19198.22
906,23796,19219.44
907,23800,19240.65
908,23808,19261.86
909,23816,19283.08
910,23804,19304.29
911,23756,19325.51
912,23680,19346.72
913,23600,19367.93
914,23524,19389.15
915,23472,19410.36
916,23444,19431.57
917,23436,19452.79
918,23436,19474.00
919,23444,19495.21
920,23468,19516.43
921,23500,19537.64
922,23524,19558.85
923,23552,19580.07
924,23580,19601.28
925,23604,19622.49
926,23620,19643.71
927,23640,19664.92
928,23652,19686.14
929,23668,19707.35
930,23676,19728.56
931,23684,19749.78
932,23696,19770.99
933,23700,19792.20
934,23668,19813.42
935,23604,19834.63
936,23516,19855.84
937,23448,19877.06
938,23392,19898.27
939,23360,19919.48
940,23348,19940.70
941,23352,19961.91
942,23368,19983.12
943,23392,20004.34
944,23424,20025.55
945,23460,20046.76
946,23500,20067.98
947,23532,20089.19
948,23556,20110.41
949,23576,20131.62
950,23592,20152.83
951,23612,20174.05
952,23636,20195.26
953,23660,20216.47
954,23684,20237.69
955,23704,20258.90
956,23736,20280.11
957,23744,20301.33
958,23712,20322.54
959,23668,20343.75
960,23620,20364.97
961,23588,20386.18
962,23572,20407.39
963,23580,20428.61
964,23588,20449.82
965,23616,20471.03
966,23648,20492.25
967,23668,20513.46
968,23688,20534.68
969,23732,20555.89
970,23760,20577.10
971,23788,20598.32
972,23804,20619.53
973,23816,20640.74
974,23832,20661.96
975,23812,20683.17
976,23776,20704.38
977,23764,20725.60
978,23752,20746.81
979,23744,20768.02
980,23728,20789.24
981,23692,20810.45
982,23628,20831.66
983,23560,20852.88
984,23508,20874.09
985,23484,20895.31
986,23492,20916.52
987,23520,20937.73
988,23548,20958.95
989,23576,20980.16
990,23628,21001.37
991,23676,21022.59
992,23756,21043.80
993,23860,21065.01
994,23968,21086.23
995,24060,21107.44
996,24144,21128.65
997,24212,21149.87
998,24272,21171.08
999,24320,21192.29
1000,24364,21213.51
1001,24400,21234.72
1002,24432,21255.93
1003,24460,21277.15
1004,24472,21298.36
1005,24448,21319.58
1006,24396,21340.79
1007,24320,21362.00
1008,24256,21383.22
1009,24200,21404.43
1010,24172,21425.64
1011,24168,21446.86
1012,24180,21468.07
1013,24212,21489.28
1014,24252,21510.50
1015,24300,21531.71
1016,24352,21552.92
1017,24404,21574.14
1018,24452,21595.35
1019,24496,21616.56
1020,24536,21637.78
1021,24560,21658.99
1022,24584,21680.20
1023,24600,21701.42
1024,24616,21722.63
1025,24632,21743.85
1026,24648,21765.06
1027,24660,21786.27
1028,24652,21807.49
1029,24600,21828.70
1030,24516,21849.91
1031,24420,21871.13
1032,24336,21892.34
1033,24268,21913.55
1034,24232,21934.77
1035,24220,21955.98
1036,24228,21977.19
1037,24256,21998.41
1038,24296,22019.62
1039,24340,22040.83
1040,24384,22062.05
1041,24428,22083.26
1042,24472,22104.47
1043,24508,22125.69
1044,24540,22146.90
1045,24564,22168.12
1046,24584,22189.33
1047,24600,22210.54
1048,24616,22231.76
1049,24636,22252.97
1050,24652,22274.18
1051,24668,22295.40
1052,24656,22316.61
1053,24608,22337.82
1054,24532,22359.04
1055,24444,22380.25
1056,24372,22401.46
1057,24308,22422.68
1058,24288,22443.89
1059,24288,22465.10
1060,24296,22486.32
1061,24328,22507.53
1062,24372,22528.75
1063,24420,22549.96
1064,24472,22571.17
1065,24520,22592.39
1066,24576,22613.60
1067,24624,22634.81
1068,24656,22656.03
1069,24692,22677.24
1070,24720,22698.45
1071,24740,22719.67
1072,24760,22740.88
1073,24780,22762.09
1074,24800,22783.31
1075,24820,22804.52
1076,24812,22825.73
1077,24764,22846.95
1078,24688,22868.16
1079,24604,22889.37
1080,24532,22910.59
1081,24480,22931.80
1082,24452,22953.02
1083,24448,22974.23
1084,24464,22995.44
1085,24496,23016.66
1086,24532,23037.87
1087,24576,23059.08
1088,24624,23080.30
1089,24668,23101.51
1090,24704,23122.72
1091,24740,23143.94
1092,24768,23165.15
1093,24788,23186.36
1094,24800,23207.58
1095,24812,23228.79
1096,24820,23250.00
1097,24836,23271.22
1098,24840,23292.43
1099,24832,23313.64
1100,24776,23334.86
1101,24688,23356.07
1102,24584,23377.29
1103,24484,23398.50
1104,24404,23419.71
1105,24348,23440.93
1106,24324,23462.14
1107,24324,23483.35
1108,24340,23504.57
1109,24376,23525.78
1110,24420,23546.99
1111,24468,23568.21
1112,24512,23589.42
1113,24560,23610.63
1114,24596,23631.85
1115,24636,23653.06
1116,24656,23674.27
1117,24680,23695.49
1118,24696,23716.70
1119,24708,23737.92
1120,24728,23759.13
1121,24744,23780.34
1122,24760,23801.56
1123,24756,23822.77
1124,24704,23843.98
1125,24620,23865.20
1126,24520,23886.41
1127,24424,23907.62
1128,24348,23928.84
1129,24296,23950.05
1130,24280,23971.26
1131,24284,23992.48
1132,24312,24013.69
1133,24344,24034.90
1134,24388,24056.12
1135,24440,24077.33
1136,24488,24098.54
1137,24532,24119.76
1138,24572,24140.97
1139,24608,24162.19
1140,24632,24183.40
1141,24660,24204.61
1142,24676,24225.83
1143,24696,24247.04
1144,24712,24268.25
1145,24728,24289.47
1146,24748,24310.68
1147,24752,24331.89
1148,24720,24353.11
1149,24648,24374.32
1150,24560,24395.53
1151,24468,24416.75
1152,24392,24437.96
1153,24344,24459.17
1154,24328,24480.39
1155,24324,24501.60
1156,24348,24522.81
1157,24380,24544.03
1158,24424,24565.24
1159,24468,24586.46
1160,24520,24607.67
1161,24568,24628.88
1162,24612,24650.10
1163,24648,24671.31
1164,24680,24692.52
1165,24704,24713.74
1166,24728,24734.95
1167,24740,24756.16
1168,24756,24777.38
1169,24772,24798.59
1170,24788,24819.80
1171,24792,24841.02
1172,24756,24862.23
1173,24692,24883.44
1174,24600,24904.66
1175,24508,24925.87
1176,24432,24947.09
1177,24376,24968.30
1178,24348,24989.51
1179,24348,25010.73
1180,24360,25031.94
1181,24384,25053.15
1182,24416,25074.37
1183,24456,25095.58
1184,24496,25116.79
1185,24532,25138.01
1186,24556,25159.22
1187,24560,25180.43
1188,24568,25201.65
1189,24564,25222.86
1190,24560,25244.07
1191,24572,25265.29
1192,24580,25286.50
1193,24596,25307.71
1194,24612,25328.93
1195,24604,25350.14
1196,24552,25371.36
1197,24468,25392.57
1198,24372,25413.78
1199,24288,25435.00
1200,24220,25456.21
1201,24180,25477.42
1202,24172,25498.64
1203,24184,25519.85
1204,24212,25541.06
1205,24252,25562.28
1206,24300,25583.49
1207,24352,25604.70
1208,24400,25625.92
1209,24448,25647.13
1210,24488,25668.34
1211,24520,25689.56
1212,24548,25710.77
1213,24568,25731.98
1214,24584,25753.20
1215,24600,25774.41
1216,24616,25795.63
1217,24636,25816.84
1218,24648,25838.05
1219,24636,25859.27
1220,24576,25880.48
1221,24484,25901.69
1222,24380,25922.91
1223,24280,25944.12
1224,24208,25965.33
1225,24168,25986.55
1226,24156,26007.76
1227,24168,26028.97
1228,24200,26050.19
1229,24244,26071.40
1230,24292,26092.61
1231,24348,26113.83
1232,24404,26135.04
1233,24452,26156.25
1234,24492,26177.47
1235,24532,26198.68
1236,24560,26219.90
1237,24580,26241.11
1238,24596,26262.32
1239,24612,26283.54
1240,24624,26304.75
1241,24644,26325.96
1242,24656,26347.18
1243,24656,26368.39
1244,24612,26389.60
1245,24528,26410.82
1246,24428,26432.03
1247,24336,26453.24
1248,24264,26474.46
1249,24220,26495.67
1250,24208,26516.88
1251,24220,26538.10
1252,24252,26559.31
1253,24292,26580.53
1254,24344,26601.74
1255,24396,26622.95
1256,24444,26644.17
1257,24496,26665.38
1258,24536,26686.59
1259,24568,26707.81
1260,24596,26729.02
1261,24616,26750.23
1262,24628,26771.45
1263,24640,26792.66
1264,24652,26813.87
1265,24664,26835.09
1266,24676,26856.30
1267,24664,26877.51
1268,24608,26898.73
1269,24516,26919.94
1270,24404,26941.15
1271,24292,26962.37
1272,24204,26983.58
1273,24144,27004.80
1274,24120,27026.01
1275,24116,27047.22
1276,24132,27068.44
1277,24160,27089.65
1278,24200,27110.86
1279,24240,27132.08
1280,24284,27153.29
1281,24324,27174.50
1282,24360,27195.72
1283,24388,27216.93
1284,24416,27238.14
1285,24436,27259.36
1286,24448,27280.57
1287,24460,27301.78
1288,24476,27323.00
1289,24492,27344.21
1290,24504,27365.42
1291,24484,27386.64
1292,24424,27407.85
1293,24332,27429.07
1294,24232,27450.28
1295,24148,27471.49
1296,24092,27492.71
1297,24064,27513.92
1298,24068,27535.13
1299,24092,27556.35
1300,24128,27577.56
1301,24180,27598.77
1302,24232,27619.99
1303,24288,27641.20
1304,24336,27662.41
1305,24376,27683.63
1306,24412,27704.84
1307,24440,27726.05
1308,24456,27747.27
1309,24464,27768.48
1310,24472,27789.70
1311,24480,27810.91
1312,24492,27832.12
1313,24512,27853.34
1314,24524,27874.55
1315,24508,27895.76
1316,24456,27916.98
1317,24368,27938.19
1318,24276,27959.40
1319,24188,27980.62
1320,24136,28001.83
1321,24108,28023.04
1322,24112,28044.26
1323,24136,28065.47
1324,24176,28086.68
1325,24228,28107.90
1326,24276,28129.11
1327,24332,28150.32
1328,24376,28171.54
1329,24416,28192.75
1330,24456,28213.97
1331,24484,28235.18
1332,24504,28256.39
1333,24524,28277.61
1334,24540,28298.82
1335,24556,28320.03
1336,24572,28341.25
1337,24592,28362.46
1338,24612,28383.67
1339,24612,28404.89
1340,24576,28426.10
1341,24508,28447.31
1342,24420,28468.53
1343,24336,28489.74
1344,24276,28510.95
1345,24240,28532.17
1346,24232,28553.38
1347,24248,28574.59
1348,24276,28595.81
1349,24316,28617.02
1350,24364,28638.24
1351,24416,28659.45
1352,24460,28680.66
1353,24500,28701.88
1354,24532,28723.09
1355,24556,28744.30
1356,24568,28765.52
1357,24576,28786.73
1358,24580,28807.94
1359,24576,28829.16
1360,24576,28850.37
1361,24580,28871.58
1362,24584,28892.80
1363,24564,28914.01
1364,24504,28935.22
1365,24416,28956.44
1366,24324,28977.65
1367,24236,28998.86
1368,24176,29020.08
1369,24144,29041.29
1370,24144,29062.51
1371,24160,29083.72
1372,24200,29104.93
1373,24248,29126.15
1374,24304,29147.36
1375,24356,29168.57
1376,24404,29189.79
1377,24436,29211.00
1378,24464,29232.21
1379,24480,29253.43
1380,24492,29274.64
1381,24504,29295.85
1382,24508,29317.07
1383,24520,29338.28
1384,24536,29359.49
1385,24552,29380.71
1386,24568,29401.92
1387,24552,29423.14
1388,24500,29444.35
1389,24404,29465.56
1390,24300,29486.78
1391,24196,29507.99
1392,24124,29529.20
1393,24088,29550.42
1394,24076,29571.63
1395,24088,29592.84
1396,24116,29614.06
1397,24156,29635.27
1398,24204,29656.48
1399,24252,29677.70
1400,24300,29698.91
1401,24340,29720.12
1402,24380,29741.34
1403,24404,29762.55
1404,24424,29783.76
1405,24444,29804.98
1406,24456,29826.19
1407,24472,29847.41
1408,24484,29868.62
1409,24496,29889.83
1410,24516,29911.05
1411,24512,29932.26
1412,24468,29953.47
1413,24380,29974.69
1414,24276,29995.90
1415,24172,30017.11
1416,24088,30038.33
1417,24040,30059.54
1418,24016,30080.75
1419,24024,30101.97
1420,24052,30123.18
1421,24096,30144.39
1422,24152,30165.61
1423,24208,30186.82
1424,24264,30208.03
1425,24316,30229.25
1426,24356,30250.46
1427,24388,30271.68
1428,24412,30292.89
1429,24428,30314.10
1430,24436,30335.32
1431,24440,30356.53
1432,24452,30377.74
1433,24464,30398.96
1434,24476,30420.17
1435,24484,30441.38
1436,24444,30462.60
1437,24368,30483.81
1438,24260,30505.02
1439,24152,30526.24
1440,24072,30547.45
1441,24024,30568.66
1442,24000,30589.88
1443,24008,30611.09
1444,24032,30632.31
1445,24068,30653.52
1446,24116,30674.73
1447,24168,30695.95
1448,24212,30717.16
1449,24252,30738.37
1450,24280,30759.59
1451,24296,30780.80
1452,24304,30802.01
1453,24316,30823.23
1454,24324,30844.44
1455,24336,30865.65
1456,24352,30886.87
1457,24376,30908.08
1458,24404,30929.29
1459,24400,30950.51
1460,24348,30971.72
1461,24256,30992.93
1462,24152,31014.15
1463,24052,31035.36
1464,23984,31056.58
1465,23952,31077.79
1466,23948,31099.00
1467,23968,31120.22
1468,24012,31141.43
1469,24064,31162.64
1470,24120,31183.86
1471,24176,31205.07
1472,24224,31226.28
1473,24272,31247.50
1474,24308,31268.71
1475,24328,31289.92
1476,24344,31311.14
1477,24352,31332.35
1478,24364,31353.56
1479,24372,31374.78
1480,24388,31395.99
1481,24400,31417.20
1482,24412,31438.42
1483,24384,31459.63
1484,24308,31480.85
1485,24204,31502.06
1486,24092,31523.27
1487,24000,31544.49
1488,23940,31565.70
1489,23920,31586.91
1490,23924,31608.13
1491,23956,31629.34
1492,24000,31650.55
1493,24048,31671.77
1494,24108,31692.98
1495,24164,31714.19
1496,24216,31735.41
1497,24260,31756.62
1498,24292,31777.83
1499,24308,31799.05
1500,24328,31820.26
1501,24340,31841.48
1502,24348,31862.69
1503,24360,31883.90
1504,24376,31905.12
1505,24392,31926.33
1506,24408,31947.54
1507,24384,31968.76
1508,24312,31989.97
1509,24200,32011.18
1510,24088,32032.40
1511,23988,32053.61
1512,23924,32074.82
1513,23892,32096.04
1514,23896,32117.25
1515,23920,32138.46
1516,23960,32159.68
1517,24004,32180.89
1518,24064,32202.10
1519,24116,32223.32
1520,24164,32244.53
1521,24204,32265.75
1522,24228,32286.96
1523,24248,32308.17
1524,24260,32329.39
1525,24268,32350.60
1526,24272,32371.81
1527,24284,32393.03
1528,24288,32414.24
1529,24296,32435.45
1530,24292,32456.67
1531,24240,32477.88
1532,24140,32499.09
1533,24008,32520.31
1534,23884,32541.52
1535,23788,32562.73
1536,23744,32583.95
1537,23740,32605.16
1538,23764,32626.37
1539,23804,32647.59
1540,23856,32668.80
1541,23912,32690.02
1542,23968,32711.23
1543,24020,32732.44
1544,24068,32753.66
1545,24108,32774.87
1546,24132,32796.08
1547,24152,32817.30
1548,24164,32838.51
1549,24172,32859.72
1550,24180,32880.94
1551,24188,32902.15
1552,24196,32923.36
1553,24208,32944.58
1554,24216,32965.79
1555,24188,32987.00
1556,24104,33008.22
1557,23992,33029.43
1558,23872,33050.64
1559,23772,33071.86
1560,23708,33093.07
1561,23684,33114.29
1562,23688,33135.50
1563,23720,33156.71
1564,23768,33177.93
1565,23828,33199.14
1566,23892,33220.35
1567,23960,33241.57
1568,24020,33262.78
1569,24068,33283.99
1570,24104,33305.21
1571,24132,33326.42
1572,24152,33347.63
1573,24168,33368.85
1574,24180,33390.06
1575,24192,33411.27
1576,24208,33432.49
1577,24224,33453.70
1578,24248,33474.92
1579,24260,33496.13
1580,24232,33517.34
1581,24156,33538.56
1582,24040,33559.77
1583,23928,33580.98
1584,23840,33602.20
1585,23788,33623.41
1586,23772,33644.62
1587,23784,33665.84
1588,23816,33687.05
1589,23872,33708.26
1590,23924,33729.48
1591,23980,33750.69
1592,24036,33771.90
1593,24080,33793.12
1594,24112,33814.33
1595,24140,33835.54
1596,24148,33856.76
1597,24156,33877.97
1598,24160,33899.19
1599,24168,33920.40
1600,24176,33941.61
1601,24184,33962.83
1602,24196,33984.04
1603,24212,34005.25
1604,24212,34026.47
1605,24156,34047.68
1606,24048,34068.89
1607,23912,34090.11
1608,23784,34111.32
1609,23692,34132.53
1610,23644,34153.75
1611,23636,34174.96
1612,23656,34196.17
1613,23696,34217.39
1614,23748,34238.60
1615,23812,34259.81
1616,23872,34281.03
1617,23928,34302.24
1618,23972,34323.46
1619,24004,34344.67
1620,24024,34365.88
1621,24040,34387.10
1622,24052,34408.31
1623,24064,34429.52
1624,24084,34450.74
1625,24104,34471.95
1626,24132,34493.16
1627,24156,34514.38
1628,24172,34535.59
1629,24148,34556.80
1630,24060,34578.02
1631,23936,34599.23
1632,23808,34620.44
1633,23708,34641.66
1634,23656,34662.87
1635,23640,34684.09
1636,23660,34705.30
1637,23700,34726.51
1638,23752,34747.73
1639,23816,34768.94
1640,23880,34790.15
1641,23932,34811.37
1642,23988,34832.58
1643,24028,34853.79
1644,24052,34875.01
1645,24072,34896.22
1646,24088,34917.43
1647,24100,34938.65
1648,24112,34959.86
1649,24132,34981.07
1650,24152,35002.29
1651,24176,35023.50
1652,24204,35044.71
1653,24232,35065.93
1654,24228,35087.14
1655,24164,35108.36
1656,24056,35129.57
1657,23928,35150.78
1658,23816,35172.00
1659,23744,35193.21
1660,23720,35214.42
1661,23728,35235.64
1662,23760,35256.85
1663,23812,35278.06
1664,23872,35299.28
1665,23944,35320.49
1666,24012,35341.70
1667,24068,35362.92
1668,24116,35384.13
1669,24152,35405.34
1670,24172,35426.56
1671,24180,35447.77
1672,24184,35468.98
1673,24192,35490.20
1674,24192,35511.41
1675,24204,35532.63
1676,24212,35553.84
1677,24232,35575.05
1678,24252,35596.27
1679,24248,35617.48
1680,24192,35638.69
1681,24080,35659.91
1682,23952,35681.12
1683,23836,35702.33
1684,23760,35723.55
1685,23720,35744.76
1686,23724,35765.97
1687,23748,35787.19
1688,23796,35808.40
1689,23848,35829.61
1690,23908,35850.83
1691,23968,35872.04
1692,24008,35893.25
1693,24044,35914.47
1694,24068,35935.68
1695,24084,35956.90
1696,24096,35978.11
1697,24100,35999.32
1698,24116,36020.54
1699,24132,36041.75
1700,24152,36062.96
1701,24180,36084.18
1702,24208,36105.39
1703,24228,36126.60
1704,24212,36147.82
1705,24140,36169.03
1706,24028,36190.24
1707,23912,36211.46
1708,23820,36232.67
1709,23768,36253.88
1710,23748,36275.10
1711,23768,36296.31
1712,23804,36317.53
1713,23856,36338.74
1714,23920,36359.95
1715,23980,36381.17
1716,24036,36402.38
1717,24084,36423.59
1718,24116,36444.81
1719,24144,36466.02
1720,24164,36487.23
1721,24172,36508.45
1722,24184,36529.66
1723,24196,36550.87
1724,24208,36572.09
1725,24220,36593.30
1726,24244,36614.51
1727,24260,36635.73
1728,24288,36656.94
1729,24292,36678.15
1730,24236,36699.37
1731,24140,36720.58
1732,24024,36741.80
1733,23920,36763.01
1734,23848,36784.22
1735,23820,36805.44
1736,23824,36826.65
1737,23848,36847.86
1738,23896,36869.08
1739,23956,36890.29
1740,24020,36911.50
1741,24080,36932.72
1742,24132,36953.93
1743,24176,36975.14
1744,24208,36996.36
1745,24224,37017.57
1746,24236,37038.78
1747,24248,37060.00
1748,24256,37081.21
1749,24272,37102.42
1750,24284,37123.64
1751,24300,37144.85
1752,24324,37166.07
1753,24348,37187.28
1754,24360,37208.49
1755,24320,37229.71
1756,24228,37250.92
1757,24120,37272.13
1758,24012,37293.35
1759,23936,37314.56
1760,23892,37335.77
1761,23876,37356.99
1762,23880,37378.20
1763,23896,37399.41
1764,23916,37420.63
1765,23940,37441.84
1766,23968,37463.05
1767,23988,37484.27
1768,24008,37505.48
1769,24028,37526.70
1770,24036,37547.91
1771,24048,37569.12
1772,24056,37590.34
1773,24072,37611.55
1774,24088,37632.76
1775,24100,37653.98
1776,24128,37675.19
1777,24148,37696.40
1778,24172,37717.62
1779,24172,37738.83
1780,24104,37760.04
1781,24008,37781.26
1782,23900,37802.47
1783,23808,37823.68
1784,23744,37844.90
1785,23720,37866.11
1786,23732,37887.32
1787,23756,37908.54
1788,23800,37929.75
1789,23856,37950.97
1790,23916,37972.18
1791,23968,37993.39
1792,24016,38014.61
1793,24056,38035.82
1794,24084,38057.03
1795,24104,38078.25
1796,24112,38099.46
1797,24108,38120.67
1798,24108,38141.89
1799,24100,38163.10
1800,24092,38184.31
1801,24088,38205.53
1802,24088,38226.74
1803,24104,38247.95
1804,24112,38269.17
1805,24068,38290.38
1806,23988,38311.59
1807,23892,38332.81
1808,23808,38354.02
1809,23752,38375.24
1810,23740,38396.45
1811,23752,38417.66
1812,23788,38438.88
1813,23844,38460.09
1814,23908,38481.30
1815,23972,38502.52
1816,24040,38523.73
1817,24104,38544.94
1818,24160,38566.16
1819,24204,38587.37
1820,24236,38608.58
1821,24256,38629.80
1822,24272,38651.01
1823,24276,38672.22
1824,24280,38693.44
1825,24288,38714.65
1826,24300,38735.86
1827,24312,38757.08
1828,24332,38778.29
1829,24332,38799.51
1830,24284,38820.72
1831,24192,38841.93
1832,24080,38863.15
1833,23976,38884.36
1834,23908,38905.57
1835,23868,38926.79
1836,23868,38948.00
1837,23900,38969.21
1838,23940,38990.43
1839,23996,39011.64
1840,24060,39032.85
1841,24116,39054.07
1842,24160,39075.28
1843,24184,39096.49
1844,24184,39117.71
1845,24160,39138.92
1846,24120,39160.14
1847,24084,39181.35
1848,24060,39202.56
1849,24052,39223.78
1850,24060,39244.99
1851,24080,39266.20
1852,24108,39287.42
1853,24116,39308.63
1854,24084,39329.84
1855,23996,39351.06
1856,23908,39372.27
1857,23828,39393.48
1858,23776,39414.70
1859,23764,39435.91
1860,23772,39457.12
1861,23808,39478.34
1862,23844,39499.55
1863,23904,39520.76
1864,23956,39541.98
1865,24004,39563.19
1866,24052,39584.41
1867,24080,39605.62
1868,24112,39626.83
1869,24128,39648.05
1870,24136,39669.26
1871,24144,39690.47
1872,24156,39711.69
1873,24168,39732.90
1874,24188,39754.11
1875,24208,39775.33
1876,24236,39796.54
1877,24240,39817.75
1878,24204,39838.97
1879,24136,39860.18
1880,24052,39881.39
1881,23976,39902.61
1882,23924,39923.82
1883,23904,39945.03
1884,23908,39966.25
1885,23928,39987.46
1886,23968,40008.68
1887,24012,40029.89
1888,24060,40051.10
1889,24108,40072.32
1890,24156,40093.53
1891,24196,40114.74
1892,24228,40135.96
1893,24248,40157.17
1894,24260,40178.38
1895,24280,40199.60
1896,24300,40220.81
1897,24328,40242.02
1898,24356,40263.24
1899,24384,40284.45
1900,24424,40305.66
1901,24440,40326.88
1902,24428,40348.09
1903,24380,40369.31
1904,24316,40390.52
1905,24252,40411.73
1906,24212,40432.95
1907,24196,40454.16
1908,24200,40475.37
1909,24216,40496.59
1910,24244,40517.80
1911,24284,40539.01
1912,24332,40560.23
1913,24372,40581.44
1914,24408,40602.65
1915,24428,40623.87
1916,24436,40645.08
1917,24436,40666.29
1918,24432,40687.51
1919,24432,40708.72
1920,24440,40729.93
1921,24456,40751.15
1922,24484,40772.36
1923,24508,40793.58
1924,24536,40814.79
1925,24544,40836.00
1926,24516,40857.22
1927,24468,40878.43
1928,24420,40899.64
1929,24372,40920.86
1930,24348,40942.07
1931,24340,40963.28
1932,24348,40984.50
1933,24368,41005.71
1934,24404,41026.92
1935,24436,41048.14
1936,24464,41069.35
1937,24488,41090.56
1938,24516,41111.78
1939,24536,41132.99
1940,24552,41154.20
1941,24568,41175.42
1942,24576,41196.63
1943,24592,41217.85
1944,24612,41239.06
1945,24632,41260.27
1946,24656,41281.49
1947,24676,41302.70
1948,24700,41323.91
1949,24700,41345.13
1950,24676,41366.34
1951,24644,41387.55
1952,24608,41408.77
1953,24588,41429.98
1954,24576,41451.19
1955,24576,41472.41
1956,24584,41493.62
1957,24604,41514.83
1958,24632,41536.05
1959,24660,41557.26
1960,24696,41578.48
1961,24724,41599.69
1962,24744,41620.90
1963,24760,41642.12
1964,24776,41663.33
1965,24788,41684.54
1966,24796,41705.76
1967,24804,41726.97
1968,24816,41748.18
1969,24832,41769.40
1970,24848,41790.61
1971,24868,41811.82
1972,24884,41833.04
1973,24880,41854.25
1974,24852,41875.46
1975,24816,41896.68
1976,24776,41917.89
1977,24744,41939.10
1978,24728,41960.32
1979,24728,41981.53
1980,24732,42002.75
1981,24748,42023.96
1982,24768,42045.17
1983,24792,42066.39
1984,24812,42087.60
1985,24828,42108.81
1986,24836,42130.03
1987,24836,42151.24
1988,24828,42172.45
1989,24824,42193.67
1990,24824,42214.88
1991,24828,42236.09
1992,24840,42257.31
1993,24856,42278.52
1994,24868,42299.73
1995,24884,42320.95
1996,24896,42342.16
1997,24884,42363.37
1998,24852,42384.59
1999,24820,42405.80
2000,24792,42427.02
2001,24768,42448.23
2002,24760,42469.44
2003,24760,42490.66
2004,24768,42511.87
2005,24780,42533.08
2006,24796,42554.30
2007,24816,42575.51
2008,24832,42596.72
2009,24848,42617.94
2010,24856,42639.15
2011,24860,42660.36
2012,24864,42681.58
2013,24868,42702.79
2014,24872,42724.00
2015,24880,42745.22
2016,24888,42766.43
2017,24892,42787.64
2018,24908,42808.86
2019,24924,42830.07
2020,24940,42851.29
2021,24948,42872.50
2022,24932,42893.71
2023,24916,42914.93
2024,24884,42936.14
2025,24860,42957.35
2026,24844,42978.57
2027,24840,42999.78
2028,24840,43020.99
2029,24848,43042.21
2030,24872,43063.42
2031,24892,43084.63
2032,24916,43105.85
2033,24936,43127.06
2034,24952,43148.27
2035,24968,43169.49
2036,24980,43190.70
2037,24984,43211.92
2038,24992,43233.13
2039,24988,43254.34
2040,24996,43275.56
2041,25008,43296.77
2042,25020,43317.98
2043,25032,43339.20
2044,25044,43360.41
2045,25056,43381.62
2046,25064,43402.84
2047,25060,43424.05
2048,25028,43445.26
2049,25000,43466.48
2050,24960,43487.69
2051,24924,43508.90
2052,24904,43530.12
2053,24892,43551.33
2054,24884,43572.54
2055,24888,43593.76
2056,24900,43614.97
2057,24908,43636.19
2058,24924,43657.40
2059,24940,43678.61
2060,24952,43699.83
2061,24964,43721.04
2062,24976,43742.25
2063,24988,43763.47
2064,24996,43784.68
2065,25004,43805.89
2066,25016,43827.11
2067,25024,43848.32
2068,25040,43869.53
2069,25052,43890.75
2070,25064,43911.96
2071,25076,43933.17
2072,25072,43954.39
2073,25056,43975.60
2074,25028,43996.81
2075,24992,44018.03
2076,24968,44039.24
2077,24948,44060.46
2078,24936,44081.67
2079,24936,44102.88
2080,24940,44124.10
2081,24952,44145.31
2082,24956,44166.52
2083,24976,44187.74
2084,24984,44208.95
2085,25000,44230.16
2086,25008,44251.38
2087,25020,44272.59
2088,25028,44293.80
2089,25040,44315.02
2090,25044,44336.23
2091,25056,44357.44
2092,25064,44378.66
2093,25072,44399.87
2094,25088,44421.09
2095,25100,44442.30
2096,25116,44463.51
2097,25136,44484.73
2098,25148,44505.94
2099,25152,44527.15
2100,25136,44548.37
2101,25108,44569.58
2102,25076,44590.79
2103,25052,44612.01
2104,25036,44633.22
2105,25028,44654.43
2106,25028,44675.65
2107,25036,44696.86
2108,25056,44718.07
2109,25072,44739.29
2110,25096,44760.50
2111,25112,44781.71
2112,25124,44802.93
2113,25132,44824.14
2114,25140,44845.36
2115,25144,44866.57
2116,25144,44887.78
2117,25140,44909.00
2118,25136,44930.21
2119,25136,44951.42
2120,25132,44972.64
2121,25140,44993.85
2122,25144,45015.06
2123,25156,45036.28
2124,25164,45057.49
2125,25160,45078.70
2126,25140,45099.92
2127,25104,45121.13
2128,25064,45142.34
2129,25028,45163.56
2130,25004,45184.77
2131,24980,45205.98
2132,24972,45227.20
2133,24968,45248.41
2134,24976,45269.63
2135,24992,45290.84
2136,25012,45312.05
2137,25028,45333.27
2138,25044,45354.48
2139,25048,45375.69
2140,25052,45396.91
2141,25048,45418.12
2142,25052,45439.33
2143,25056,45460.55
2144,25064,45481.76
2145,25076,45502.97
2146,25080,45524.19
2147,25096,45545.40
2148,25104,45566.61
2149,25124,45587.83
2150,25140,45609.04
2151,25152,45630.25
2152,25148,45651.47
2153,25124,45672.68
2154,25088,45693.90
2155,25048,45715.11
2156,25008,45736.32
2157,24976,45757.54
2158,24960,45778.75
2159,24956,45799.96
2160,24960,45821.18
2161,24972,45842.39
2162,24988,45863.60
2163,25016,45884.82
2164,25032,45906.03
2165,25052,45927.24
2166,25068,45948.46
2167,25080,45969.67
2168,25088,45990.88
2169,25100,46012.10
2170,25108,46033.31
2171,25112,46054.53
2172,25124,46075.74
2173,25136,46096.95
2174,25144,46118.17
2175,25156,46139.38
2176,25168,46160.59
2177,25184,46181.81
2178,25176,46203.02
2179,25152,46224.23
2180,25108,46245.45
2181,25052,46266.66
2182,24992,46287.87
2183,24940,46309.09
2184,24904,46330.30
2185,24880,46351.51
2186,24872,46372.73
2187,24868,46393.94
2188,24880,46415.15
2189,24888,46436.37
2190,24904,46457.58
2191,24916,46478.80
2192,24932,46500.01
2193,24940,46521.22
2194,24944,46542.44
2195,24952,46563.65
2196,24956,46584.86
2197,24964,46606.08
2198,24972,46627.29
2199,24984,46648.50
2200,24996,46669.72
2201,25004,46690.93
2202,25016,46712.14
2203,25020,46733.36
2204,25004,46754.57
2205,24964,46775.78
2206,24908,46797.00
2207,24840,46818.21
2208,24780,46839.42
2209,24744,46860.64
2210,24724,46881.85
2211,24720,46903.07
2212,24732,46924.28
2213,24752,46945.49
2214,24784,46966.71
2215,24816,46987.92
2216,24848,47009.13
2217,24872,47030.35
2218,24892,47051.56
2219,24904,47072.77
2220,24920,47093.99
2221,24932,47115.20
2222,24940,47136.41
2223,24952,47157.63
2224,24964,47178.84
2225,24984,47200.05
2226,24996,47221.27
2227,25016,47242.48
2228,25036,47263.70
2229,25052,47284.91
2230,25040,47306.12
2231,25004,47327.34
2232,24948,47348.55
2233,24888,47369.76
2234,24832,47390.98
2235,24800,47412.19
2236,24776,47433.40
2237,24776,47454.62
2238,24780,47475.83
2239,24796,47497.04
2240,24820,47518.26
2241,24844,47539.47
2242,24868,47560.68
2243,24888,47581.90
2244,24900,47603.11
2245,24900,47624.32
2246,24900,47645.54
2247,24892,47666.75
2248,24892,47687.97
2249,24892,47709.18
2250,24892,47730.39
2251,24904,47751.61
2252,24920,47772.82
2253,24932,47794.03
2254,24944,47815.25
2255,24932,47836.46
2256,24896,47857.67
2257,24840,47878.89
2258,24780,47900.10
2259,24724,47921.31
2260,24684,47942.53
2261,24664,47963.74
2262,24660,47984.95
2263,24676,48006.17
2264,24700,48027.38
2265,24728,48048.59
2266,24760,48069.81
2267,24788,48091.02
2268,24816,48112.24
2269,24836,48133.45
2270,24852,48154.66
2271,24864,48175.88
2272,24872,48197.09
2273,24888,48218.30
2274,24904,48239.52
2275,24916,48260.73
2276,24940,48281.94
2277,24960,48303.16
2278,24980,48324.37
2279,25004,48345.58
2280,25000,48366.80
2281,24972,48388.01
2282,24924,48409.22
2283,24860,48430.44
2284,24804,48451.65
2285,24756,48472.87
2286,24732,48494.08
2287,24724,48515.29
2288,24732,48536.51
2289,24748,48557.72
2290,24776,48578.93
2291,24808,48600.15
2292,24836,48621.36
2293,24864,48642.57
2294,24888,48663.79
2295,24908,48685.00
2296,24928,48706.21
2297,24940,48727.43
2298,24952,48748.64
2299,24964,48769.85
2300,24976,48791.07
2301,24988,48812.28
2302,25004,48833.49
2303,25016,48854.71
2304,25040,48875.92
2305,25028,48897.14
2306,24992,48918.35
2307,24928,48939.56
2308,24852,48960.78
2309,24772,48981.99
2310,24716,49003.20
2311,24672,49024.42
2312,24652,49045.63
2313,24652,49066.84
2314,24664,49088.06
2315,24684,49109.27
2316,24716,49130.48
2317,24748,49151.70
2318,24772,49172.91
2319,24800,49194.12
2320,24816,49215.34
2321,24828,49236.55
2322,24836,49257.76
2323,24844,49278.98
2324,24848,49300.19
2325,24856,49321.41
2326,24872,49342.62
2327,24884,49363.83
2328,24900,49385.05
2329,24904,49406.26
2330,24884,49427.47
2331,24828,49448.69
2332,24760,49469.90
2333,24684,49491.11
2334,24620,49512.33
2335,24572,49533.54
2336,24548,49554.75
2337,24548,49575.97
2338,24564,49597.18
2339,24588,49618.39
2340,24624,49639.61
2341,24652,49660.82
2342,24680,49682.03
2343,24704,49703.25
2344,24724,49724.46
2345,24736,49745.68
2346,24748,49766.89
2347,24760,49788.10
2348,24776,49809.32
2349,24784,49830.53
2350,24800,49851.74
2351,24812,49872.96
2352,24836,49894.17
2353,24852,49915.38
2354,24848,49936.60
2355,24820,49957.81
2356,24752,49979.02
2357,24668,50000.24
2358,24596,50021.45
2359,24540,50042.66
2360,24508,50063.88
2361,24508,50085.09
2362,24520,50106.31
2363,24548,50127.52
2364,24584,50148.73
2365,24624,50169.95
2366,24672,50191.16
2367,24716,50212.37
2368,24760,50233.59
2369,24796,50254.80
2370,24824,50276.01
2371,24852,50297.23
2372,24868,50318.44
2373,24884,50339.65
2374,24904,50360.87
2375,24924,50382.08
2376,24944,50403.29
2377,24960,50424.51
2378,24980,50445.72
2379,24984,50466.93
2380,24952,50488.15
2381,24896,50509.36
2382,24832,50530.58
2383,24760,50551.79
2384,24708,50573.00
2385,24672,50594.22
2386,24664,50615.43
2387,24672,50636.64
2388,24692,50657.86
2389,24720,50679.07
2390,24752,50700.28
2391,24792,50721.50
2392,24824,50742.71
2393,24856,50763.92
2394,24864,50785.14
2395,24864,50806.35
2396,24864,50827.56
2397,24856,50848.78
2398,24848,50869.99
2399,24848,50891.20
2400,24848,50912.42
2401,24856,50933.63
2402,24872,50954.85
2403,24872,50976.06
2404,24832,50997.27
2405,24768,51018.49
2406,24688,51039.70
2407,24608,51060.91
2408,24552,51082.13
2409,24516,51103.34
2410,24512,51124.55
2411,24524,51145.77
2412,24552,51166.98
2413,24596,51188.19
2414,24640,51209.41
2415,24684,51230.62
2416,24724,51251.83
2417,24756,51273.05
2418,24784,51294.26
2419,24804,51315.48
2420,24820,51336.69
2421,24832,51357.90
2422,24844,51379.12
2423,24864,51400.33
2424,24880,51421.54
2425,24904,51442.76
2426,24928,51463.97
2427,24948,51485.18
2428,24936,51506.40
2429,24892,51527.61
2430,24828,51548.82
2431,24760,51570.04
2432,24696,51591.25
2433,24644,51612.46
2434,24624,51633.68
2435,24624,51654.89
2436,24644,51676.10
2437,24668,51697.32
2438,24712,51718.53
2439,24752,51739.75
2440,24796,51760.96
2441,24828,51782.17
2442,24864,51803.39
2443,24900,51824.60
2444,24920,51845.81
2445,24940,51867.03
2446,24956,51888.24
2447,24976,51909.45
2448,24988,51930.67
2449,25000,51951.88
2450,25016,51973.09
2451,25036,51994.31
2452,25024,52015.52
2453,24972,52036.73
2454,24900,52057.95
2455,24816,52079.16
2456,24740,52100.37
2457,24684,52121.59
2458,24656,52142.80
2459,24636,52164.02
2460,24636,52185.23
2461,24648,52206.44
2462,24664,52227.66
2463,24692,52248.87
2464,24712,52270.08
2465,24736,52291.30
2466,24756,52312.51
2467,24768,52333.72
2468,24780,52354.94
2469,24792,52376.15
2470,24804,52397.36
2471,24820,52418.58
2472,24836,52439.79
2473,24856,52461.00
2474,24876,52482.22
2475,24880,52503.43
2476,24840,52524.64
2477,24772,52545.86
2478,24680,52567.07
2479,24592,52588.29
2480,24524,52609.50
2481,24480,52630.71
2482,24464,52651.93
2483,24472,52673.14
2484,24500,52694.35
2485,24532,52715.57
2486,24572,52736.78
2487,24616,52757.99
2488,24664,52779.21
2489,24708,52800.42
2490,24744,52821.63
2491,24776,52842.85
2492,24796,52864.06
2493,24812,52885.27
2494,24828,52906.49
2495,24840,52927.70
2496,24856,52948.92
2497,24864,52970.13
2498,24880,52991.34
2499,24876,53012.56
2500,24840,53033.77
2501,24776,53054.98
2502,24688,53076.20
2503,24604,53097.41
2504,24532,53118.62
2505,24484,53139.84
2506,24472,53161.05
2507,24472,53182.26
2508,24492,53203.48
2509,24528,53224.69
2510,24572,53245.90
2511,24620,53267.12
2512,24664,53288.33
2513,24704,53309.54
2514,24744,53330.76
2515,24768,53351.97
2516,24788,53373.19
2517,24808,53394.40
2518,24824,53415.61
2519,24836,53436.83
2520,24856,53458.04
2521,24876,53479.25
2522,24884,53500.47
2523,24872,53521.68
2524,24824,53542.89
2525,24748,53564.11
2526,24664,53585.32
2527,24584,53606.53
2528,24532,53627.75
2529,24504,53648.96
2530,24504,53670.17
2531,24520,53691.39
2532,24544,53712.60
2533,24584,53733.81
2534,24624,53755.03
2535,24664,53776.24
2536,24700,53797.46
2537,24732,53818.67
2538,24756,53839.88
2539,24776,53861.10
2540,24792,53882.31
2541,24804,53903.52
2542,24820,53924.74
2543,24836,53945.95
2544,24856,53967.16
2545,24872,53988.38
2546,24876,54009.59
2547,24848,54030.80
2548,24792,54052.02
2549,24720,54073.23
2550,24648,54094.44
2551,24596,54115.66
2552,24564,54136.87
2553,24560,54158.09
2554,24568,54179.30
2555,24588,54200.51
2556,24624,54221.73
2557,24664,54242.94
2558,24704,54264.15
2559,24744,54285.37
2560,24780,54306.58
2561,24812,54327.79
2562,24836,54349.01
2563,24856,54370.22
2564,24872,54391.43
2565,24888,54412.65
2566,24904,54433.86
2567,24924,54455.07
2568,24940,54476.29
2569,24960,54497.50
2570,24952,54518.71
2571,24916,54539.93
2572,24860,54561.14
2573,24788,54582.36
2574,24720,54603.57
2575,24680,54624.78
2576,24660,54646.00
2577,24660,54667.21
2578,24676,54688.42
2579,24708,54709.64
2580,24740,54730.85
2581,24780,54752.06
2582,24820,54773.28
2583,24860,54794.49
2584,24888,54815.70
2585,24908,54836.92
2586,24924,54858.13
2587,24932,54879.34
2588,24940,54900.56
2589,24948,54921.77
2590,24960,54942.98
2591,24972,54964.20
2592,24980,54985.41
2593,24972,55006.63
2594,24928,55027.84
2595,24856,55049.05
2596,24764,55070.27
2597,24676,55091.48
2598,24608,55112.69
2599,24568,55133.91
2600,24552,55155.12
2601,24552,55176.33
2602,24572,55197.55
2603,24600,55218.76
2604,24632,55239.97
2605,24672,55261.19
2606,24704,55282.40
2607,24728,55303.61
2608,24748,55324.83
2609,24764,55346.04
2610,24768,55367.26
2611,24780,55388.47
2612,24788,55409.68
2613,24804,55430.90
2614,24812,55452.11
2615,24828,55473.32
2616,24828,55494.54
2617,24796,55515.75
2618,24732,55536.96
2619,24648,55558.18
2620,24564,55579.39
2621,24488,55600.60
2622,24448,55621.82
2623,24432,55643.03
2624,24432,55664.24
2625,24456,55685.46
2626,24484,55706.67
2627,24520,55727.88
2628,24560,55749.10
2629,24600,55770.31
2630,24636,55791.53
2631,24668,55812.74
2632,24692,55833.95
2633,24708,55855.17
2634,24720,55876.38
2635,24732,55897.59
2636,24740,55918.81
2637,24752,55940.02
2638,24764,55961.23
2639,24780,55982.45
2640,24772,56003.66
2641,24732,56024.87
2642,24664,56046.09
2643,24580,56067.30
2644,24500,56088.51
2645,24440,56109.73
2646,24408,56130.94
2647,24400,56152.15
2648,24412,56173.37
2649,24440,56194.58
2650,24472,56215.80
2651,24516,56237.01
2652,24560,56258.22
2653,24600,56279.44
2654,24640,56300.65
2655,24664,56321.86
2656,24684,56343.08
2657,24696,56364.29
2658,24704,56385.50
2659,24712,56406.72
2660,24720,56427.93
2661,24728,56449.14
2662,24744,56470.36
2663,24748,56491.57
2664,24712,56512.78
2665,24640,56534.00
2666,24540,56555.21
2667,24436,56576.42
2668,24352,56597.64
2669,24300,56618.85
2670,24272,56640.07
2671,24276,56661.28
2672,24300,56682.49
2673,24324,56703.71
2674,24368,56724.92
2675,24404,56746.13
2676,24448,56767.35
2677,24484,56788.56
2678,24512,56809.77
2679,24532,56830.99
2680,24548,56852.20
2681,24552,56873.41
2682,24564,56894.63
2683,24572,56915.84
2684,24588,56937.05
2685,24608,56958.27
2686,24628,56979.48
2687,24620,57000.70
2688,24572,57021.91
2689,24492,57043.12
2690,24396,57064.34
2691,24308,57085.55
2692,24248,57106.76
2693,24216,57127.98
2694,24216,57149.19
2695,24232,57170.40
2696,24272,57191.62
2697,24316,57212.83
2698,24364,57234.04
2699,24412,57255.26
2700,24456,57276.47
2701,24496,57297.68
2702,24528,57318.90
2703,24548,57340.11
2704,24564,57361.32
2705,24580,57382.54
2706,24592,57403.75
2707,24604,57424.97
2708,24620,57446.18
2709,24636,57467.39
2710,24652,57488.61
2711,24640,57509.82
2712,24588,57531.03
2713,24496,57552.25
2714,24388,57573.46
2715,24292,57594.67
2716,24228,57615.89
2717,24196,57637.10
2718,24196,57658.31
2719,24216,57679.53
2720,24252,57700.74
2721,24292,57721.95
2722,24340,57743.17
2723,24392,57764.38
2724,24436,57785.59
2725,24476,57806.81
2726,24508,57828.02
2727,24528,57849.24
2728,24540,57870.45
2729,24556,57891.66
2730,24564,57912.88
2731,24576,57934.09
2732,24592,57955.30
2733,24612,57976.52
2734,24632,57997.73
2735,24636,58018.94
2736,24588,58040.16
2737,24508,58061.37
2738,24408,58082.58
2739,24308,58103.80
2740,24236,58125.01
2741,24196,58146.22
2742,24188,58167.44
2743,24204,58188.65
2744,24236,58209.87
2745,24280,58231.08
2746,24332,58252.29
2747,24388,58273.51
2748,24436,58294.72
2749,24480,58315.93
2750,24508,58337.15
2751,24528,58358.36
2752,24544,58379.57
2753,24552,58400.79
2754,24560,58422.00
2755,24568,58443.21
2756,24580,58464.43
2757,24592,58485.64
2758,24612,58506.85
2759,24632,58528.07
2760,24624,58549.28
2761,24572,58570.49
2762,24472,58591.71
2763,24348,58612.92
2764,24244,58634.14
2765,24172,58655.35
2766,24136,58676.56
2767,24132,58697.78
2768,24156,58718.99
2769,24192,58740.20
2770,24240,58761.42
2771,24296,58782.63
2772,24352,58803.84
2773,24400,58825.06
2774,24444,58846.27
2775,24472,58867.48
2776,24496,58888.70
2777,24508,58909.91
2778,24516,58931.12
2779,24524,58952.34
2780,24540,58973.55
2781,24552,58994.76
2782,24572,59015.98
2783,24592,59037.19
2784,24612,59058.41
2785,24608,59079.62
2786,24556,59100.83
2787,24456,59122.05
2788,24332,59143.26
2789,24212,59164.47
2790,24128,59185.69
2791,24080,59206.90
2792,24072,59228.11
2793,24088,59249.33
2794,24120,59270.54
2795,24164,59291.75
2796,24212,59312.97
2797,24264,59334.18
2798,24316,59355.39
2799,24364,59376.61
2800,24392,59397.82
2801,24420,59419.03
2802,24436,59440.25
2803,24448,59461.46
2804,24460,59482.68
2805,24464,59503.89
2806,24476,59525.10
2807,24492,59546.32
2808,24512,59567.53
2809,24536,59588.74
2810,24552,59609.96
2811,24528,59631.17
2812,24444,59652.38
2813,24332,59673.60
2814,24204,59694.81
2815,24108,59716.02
2816,24044,59737.24
2817,24024,59758.45
2818,24032,59779.66
2819,24060,59800.88
2820,24100,59822.09
2821,24152,59843.31
2822,24212,59864.52
2823,24268,59885.73
2824,24312,59906.95
2825,24360,59928.16
2826,24388,59949.37
2827,24408,59970.59
2828,24416,59991.80
2829,24428,60013.01
2830,24436,60034.23
2831,24448,60055.44
2832,24464,60076.65
2833,24484,60097.87
2834,24508,60119.08
2835,24532,60140.29
2836,24532,60161.51
2837,24476,60182.72
2838,24372,60203.93
2839,24252,60225.15
2840,24140,60246.36
2841,24060,60267.58
2842,24020,60288.79
2843,24016,60310.00
2844,24040,60331.22
2845,24084,60352.43
2846,24132,60373.64
2847,24192,60394.86
2848,24252,60416.07
2849,24304,60437.28
2850,24352,60458.50
2851,24384,60479.71
2852,24412,60500.92
2853,24424,60522.14
2854,24440,60543.35
2855,24448,60564.56
2856,24460,60585.78
2857,24472,60606.99
2858,24492,60628.20
2859,24512,60649.42
2860,24536,60670.63
2861,24552,60691.85
2862,24520,60713.06
2863,24436,60734.27
2864,24316,60755.49
2865,24188,60776.70
2866,24092,60797.91
2867,24028,60819.13
2868,24004,60840.34
2869,24016,60861.55
2870,24052,60882.77
2871,24092,60903.98
2872,24152,60925.19
2873,24212,60946.41
2874,24276,60967.62
2875,24336,60988.83
2876,24388,61010.05
2877,24416,61031.26
2878,24432,61052.48
2879,24432,61073.69
2880,24436,61094.90
2881,24436,61116.12
2882,24436,61137.33
2883,24440,61158.54
2884,24448,61179.76
2885,24460,61200.97
2886,24472,61222.18
2887,24448,61243.40
2888,24368,61264.61
2889,24256,61285.82
2890,24128,61307.04
2891,24020,61328.25
2892,23952,61349.46
2893,23916,61370.68
2894,23908,61391.89
2895,23928,61413.10
2896,23964,61434.32
2897,24012,61455.53
2898,24072,61476.75
2899,24128,61497.96
2900,24180,61519.17
2901,24220,61540.39
2902,24248,61561.60
2903,24264,61582.81
2904,24264,61604.03
2905,24272,61625.24
2906,24272,61646.45
2907,24276,61667.67
2908,24280,61688.88
2909,24288,61710.09
2910,24288,61731.31
2911,24296,61752.52
2912,24284,61773.73
2913,24232,61794.95
2914,24148,61816.16
2915,24048,61837.37
2916,23944,61858.59
2917,23856,61879.80
2918,23776,61901.02
2919,23736,61922.23
2920,23728,61943.44
2921,23740,61964.66
2922,23764,61985.87
2923,23784,62007.08
2924,23804,62028.30
2925,23804,62049.51
2926,23796,62070.72
2927,23780,62091.94
2928,23768,62113.15
2929,23748,62134.36
2930,23732,62155.58
2931,23720,62176.79
2932,23724,62198.00
2933,23716,62219.22
2934,23700,62240.43
2935,23688,62261.65
2936,23664,62282.86
2937,23624,62304.07
2938,23548,62325.29
2939,23460,62346.50
2940,23368,62367.71
2941,23296,62388.93
2942,23252,62410.14
2943,23240,62431.35
2944,23264,62452.57
2945,23300,62473.78
2946,23344,62494.99
2947,23400,62516.21
2948,23452,62537.42
2949,23520,62558.63
2950,23616,62579.85
2951,23720,62601.06
2952,23792,62622.27
2953,23852,62643.49
2954,23912,62664.70
2955,23992,62685.92
2956,24064,62707.13
2957,24108,62728.34
2958,24140,62749.56
2959,24168,62770.77
2960,24204,62791.98
2961,24232,62813.20
2962,24220,62834.41
2963,24172,62855.62
2964,24104,62876.84
2965,24056,62898.05
2966,24028,62919.26
2967,24036,62940.48
2968,24072,62961.69
2969,24128,62982.90
2970,24196,63004.12
2971,24268,63025.33
2972,24348,63046.54
2973,24420,63067.76
2974,24480,63088.97
2975,24528,63110.19
2976,24568,63131.40
2977,24592,63152.61
2978,24612,63173.83
2979,24624,63195.04
2980,24636,63216.25
2981,24648,63237.47
2982,24664,63258.68
2983,24676,63279.89
2984,24696,63301.11
2985,24700,63322.32
2986,24676,63343.53
2987,24608,63364.75
2988,24516,63385.96
2989,24420,63407.17
2990,24340,63428.39
2991,24292,63449.60
2992,24276,63470.81
2993,24292,63492.03
2994,24328,63513.24
2995,24376,63534.46
2996,24432,63555.67
2997,24492,63576.88
2998,24540,63598.10
2999,24584,63619.31
