Sample_Index,IR_Value,Timestamp_ms
0,20348,0.00
1,20560,19.98
2,20936,39.95
3,21360,59.93
4,21780,79.90
5,22128,99.88
6,22352,119.86
7,22432,139.83
8,22388,159.81
9,22256,179.78
10,22112,199.76
11,22028,219.74
12,22004,239.71
13,22020,259.69
14,22048,279.66
15,22084,299.64
16,22120,319.62
17,22132,339.59
18,22128,359.57
19,22100,379.54
20,22040,399.52
21,21940,419.49
22,21860,439.47
23,21812,459.45
24,21760,479.42
25,21716,499.40
26,21684,519.37
27,21672,539.35
28,21676,559.33
29,21696,579.30
30,21720,599.28
31,21748,619.25
32,21760,639.23
33,21760,659.21
34,21760,679.18
35,21760,699.16
36,21772,719.13
37,21792,739.11
38,21812,759.09
39,21796,779.06
40,21720,799.04
41,21596,819.01
42,21468,838.99
43,21364,858.97
44,21304,878.94
45,21284,898.92
46,21292,918.89
47,21316,938.87
48,21368,958.85
49,21432,978.82
50,21496,998.80
51,21544,1018.77
52,21584,1038.75
53,21620,1058.73
54,21644,1078.70
55,21664,1098.68
56,21676,1118.65
57,21692,1138.63
58,21708,1158.61
59,21720,1178.58
60,21740,1198.56
61,21768,1218.53
62,21804,1238.51
63,21840,1258.48
64,21864,1278.46
65,21888,1298.44
66,21908,1318.41
67,21936,1338.39
68,21964,1358.36
69,21988,1378.34
70,22000,1398.32
71,22008,1418.29
72,22000,1438.27
73,21948,1458.24
74,21856,1478.22
75,21756,1498.20
76,21660,1518.17
77,21584,1538.15
78,21532,1558.12
79,21508,1578.10
80,21504,1598.08
81,21528,1618.05
82,21564,1638.03
83,21588,1658.00
84,21612,1677.98
85,21636,1697.96
86,21656,1717.93
87,21664,1737.91
88,21672,1757.88
89,21664,1777.86
90,21676,1797.84
91,21696,1817.81
92,21724,1837.79
93,21752,1857.76
94,21776,1877.74
95,21792,1897.72
96,21812,1917.69
97,21844,1937.67
98,21868,1957.64
99,21900,1977.62
100,21920,1997.59
101,21936,2017.57
102,21956,2037.55
103,21956,2057.52
104,21912,2077.50
105,21832,2097.47
106,21732,2117.45
107,21636,2137.43
108,21572,2157.40
109,21536,2177.38
110,21516,2197.35
111,21512,2217.33
112,21520,2237.31
113,21544,2257.28
114,21576,2277.26
115,21592,2297.23
116,21588,2317.21
117,21584,2337.19
118,21580,2357.16
119,21580,2377.14
120,21580,2397.11
121,21596,2417.09
122,21624,2437.07
123,21656,2457.04
124,21684,2477.02
125,21720,2496.99
126,21748,2516.97
127,21776,2536.95
128,21804,2556.92
129,21828,2576.90
130,21860,2596.87
131,21888,2616.85
132,21924,2636.83
133,21952,2656.80
134,21948,2676.78
135,21904,2696.75
136,21828,2716.73
137,21748,2736.71
138,21684,2756.68
139,21648,2776.66
140,21632,2796.63
141,21628,2816.61
142,21628,2836.58
143,21644,2856.56
144,21676,2876.54
145,21708,2896.51
146,21732,2916.49
147,21740,2936.46
148,21744,2956.44
149,21744,2976.42
150,21756,2996.39
151,21772,3016.37
152,21784,3036.34
153,21792,3056.32
154,21800,3076.30
155,21816,3096.27
156,21844,3116.25
157,21876,3136.22
158,21904,3156.20
159,21920,3176.18
160,21936,3196.15
161,21960,3216.13
162,21992,3236.10
163,22028,3256.08
164,22060,3276.06
165,22084,3296.03
166,22100,3316.01
167,22128,3335.98
168,22160,3355.96
169,22200,3375.94
170,22220,3395.91
171,22212,3415.89
172,22160,3435.86
173,22088,3455.84
174,22028,3475.82
175,21984,3495.79
176,21960,3515.77
177,21948,3535.74
178,21940,3555.72
179,21948,3575.69
180,21964,3595.67
181,21988,3615.65
182,22012,3635.62
183,22036,3655.60
184,22056,3675.57
185,22076,3695.55
186,22100,3715.53
187,22116,3735.50
188,22132,3755.48
189,22148,3775.45
190,22160,3795.43
191,22180,3815.41
192,22204,3835.38
193,22232,3855.36
194,22252,3875.33
195,22268,3895.31
196,22288,3915.29
197,22320,3935.26
198,22344,3955.24
199,22360,3975.21
200,22392,3995.19
201,22416,4015.17
202,22432,4035.14
203,22444,4055.12
204,22452,4075.09
205,22460,4095.07
206,22460,4115.05
207,22452,4135.02
208,22420,4155.00
209,22368,4174.97
210,22288,4194.95
211,22192,4214.93
212,22084,4234.90
213,21944,4254.88
214,21828,4274.85
215,21784,4294.83
216,21768,4314.80
217,21740,4334.78
218,21712,4354.76
219,21684,4374.73
220,21704,4394.71
221,21796,4414.68
222,21876,4434.66
223,21924,4454.64
224,21908,4474.61
225,21828,4494.59
226,21752,4514.56
227,21704,4534.54
228,21676,4554.52
229,21660,4574.49
230,21652,4594.47
231,21664,4614.44
232,21664,4634.42
233,21684,4654.40
234,21712,4674.37
235,21740,4694.35
236,21784,4714.32
237,21840,4734.30
238,21896,4754.28
239,21952,4774.25
240,21988,4794.23
241,22020,4814.20
242,22052,4834.18
243,22084,4854.16
244,22120,4874.13
245,22152,4894.11
246,22176,4914.08
247,22172,4934.06
248,22152,4954.04
249,22132,4974.01
250,22124,4993.99
251,22120,5013.96
252,22124,5033.94
253,22128,5053.92
254,22140,5073.89
255,22152,5093.87
256,22168,5113.84
257,22192,5133.82
258,22208,5153.79
259,22220,5173.77
260,22228,5193.75
261,22236,5213.72
262,22244,5233.70
263,22252,5253.67
264,22264,5273.65
265,22284,5293.63
266,22300,5313.60
267,22320,5333.58
268,22340,5353.55
269,22360,5373.53
270,22376,5393.51
271,22400,5413.48
272,22416,5433.46
273,22436,5453.43
274,22452,5473.41
275,22468,5493.39
276,22488,5513.36
277,22508,5533.34
278,22524,5553.31
279,22540,5573.29
280,22560,5593.27
281,22584,5613.24
282,22604,5633.22
283,22628,5653.19
284,22648,5673.17
285,22656,5693.15
286,22644,5713.12
287,22636,5733.10
288,22620,5753.07
289,22620,5773.05
290,22620,5793.03
291,22632,5813.00
292,22648,5832.98
293,22664,5852.95
294,22680,5872.93
295,22700,5892.90
296,22716,5912.88
297,22732,5932.86
298,22752,5952.83
299,22764,5972.81
300,22780,5992.78
301,22792,6012.76
302,22808,6032.74
303,22820,6052.71
304,22836,6072.69
305,22852,6092.66
306,22872,6112.64
307,22884,6132.62
308,22900,6152.59
309,22920,6172.57
310,22936,6192.54
311,22956,6212.52
312,22972,6232.50
313,22988,6252.47
314,23000,6272.45
315,23012,6292.42
316,23024,6312.40
317,23036,6332.38
318,23048,6352.35
319,23060,6372.33
320,23068,6392.30
321,23080,6412.28
322,23096,6432.26
323,23108,6452.23
324,23120,6472.21
325,23136,6492.18
326,23136,6512.16
327,23124,6532.14
328,23108,6552.11
329,23100,6572.09
330,23104,6592.06
331,23120,6612.04
332,23132,6632.02
333,23144,6651.99
334,23160,6671.97
335,23172,6691.94
336,23188,6711.92
337,23200,6731.89
338,23208,6751.87
339,23220,6771.85
340,23228,6791.82
341,23232,6811.80
342,23240,6831.77
343,23252,6851.75
344,23264,6871.73
345,23272,6891.70
346,23276,6911.68
347,23288,6931.65
348,23296,6951.63
349,23304,6971.61
350,23320,6991.58
351,23328,7011.56
352,23340,7031.53
353,23352,7051.51
354,23360,7071.49
355,23368,7091.46
356,23376,7111.44
357,23380,7131.41
358,23380,7151.39
359,23384,7171.37
360,23396,7191.34
361,23400,7211.32
362,23404,7231.29
363,23408,7251.27
364,23420,7271.25
365,23428,7291.22
366,23428,7311.20
367,23412,7331.17
368,23396,7351.15
369,23388,7371.13
370,23392,7391.10
371,23400,7411.08
372,23408,7431.05
373,23412,7451.03
374,23420,7471.00
375,23432,7490.98
376,23440,7510.96
377,23452,7530.93
378,23460,7550.91
379,23468,7570.88
380,23468,7590.86
381,23468,7610.84
382,23472,7630.81
383,23484,7650.79
384,23488,7670.76
385,23496,7690.74
386,23504,7710.72
387,23512,7730.69
388,23520,7750.67
389,23524,7770.64
390,23536,7790.62
391,23540,7810.60
392,23552,7830.57
393,23556,7850.55
394,23560,7870.52
395,23568,7890.50
396,23572,7910.48
397,23576,7930.45
398,23580,7950.43
399,23580,7970.40
400,23584,7990.38
401,23588,8010.36
402,23592,8030.33
403,23596,8050.31
404,23588,8070.28
405,23576,8090.26
406,23568,8110.24
407,23560,8130.21
408,23560,8150.19
409,23572,8170.16
410,23576,8190.14
411,23588,8210.12
412,23600,8230.09
413,23612,8250.07
414,23620,8270.04
415,23628,8290.02
416,23632,8309.99
417,23636,8329.97
418,23640,8349.95
419,23640,8369.92
420,23640,8389.90
421,23644,8409.87
422,23648,8429.85
423,23660,8449.83
424,23668,8469.80
425,23676,8489.78
426,23680,8509.75
427,23680,8529.73
428,23692,8549.71
429,23696,8569.68
430,23700,8589.66
431,23704,8609.63
432,23712,8629.61
433,23716,8649.59
434,23724,8669.56
435,23724,8689.54
436,23728,8709.51
437,23736,8729.49
438,23744,8749.47
439,23736,8769.44
440,23740,8789.42
441,23740,8809.39
442,23744,8829.37
443,23740,8849.35
444,23724,8869.32
445,23712,8889.30
446,23700,8909.27
447,23704,8929.25
448,23704,8949.23
449,23708,8969.20
450,23720,8989.18
451,23732,9009.15
452,23740,9029.13
453,23744,9049.10
454,23752,9069.08
455,23760,9089.06
456,23760,9109.03
457,23760,9129.01
458,23760,9148.98
459,23760,9168.96
460,23764,9188.94
461,23768,9208.91
462,23772,9228.89
463,23780,9248.86
464,23784,9268.84
465,23792,9288.82
466,23796,9308.79
467,23800,9328.77
468,23808,9348.74
469,23812,9368.72
470,23812,9388.70
471,23812,9408.67
472,23820,9428.65
473,23828,9448.62
474,23828,9468.60
475,23832,9488.58
476,23836,9508.55
477,23836,9528.53
478,23840,9548.50
479,23844,9568.48
480,23844,9588.46
481,23832,9608.43
482,23812,9628.41
483,23800,9648.38
484,23792,9668.36
485,23792,9688.34
486,23792,9708.31
487,23800,9728.29
488,23808,9748.26
489,23816,9768.24
490,23820,9788.21
491,23828,9808.19
492,23832,9828.17
493,23832,9848.14
494,23832,9868.12
495,23832,9888.09
496,23832,9908.07
497,23832,9928.05
498,23832,9948.02
499,23832,9968.00
500,23836,9987.97
501,23836,10007.95
502,23844,10027.93
503,23844,10047.90
504,23852,10067.88
505,23852,10087.85
506,23860,10107.83
507,23860,10127.81
508,23864,10147.78
509,23864,10167.76
510,23864,10187.73
511,23868,10207.71
512,23872,10227.69
513,23872,10247.66
514,23860,10267.64
515,23844,10287.61
516,23832,10307.59
517,23832,10327.57
518,23828,10347.54
519,23828,10367.52
520,23832,10387.49
521,23832,10407.47
522,23840,10427.45
523,23844,10447.42
524,23844,10467.40
525,23840,10487.37
526,23836,10507.35
527,23836,10527.33
528,23828,10547.30
529,23824,10567.28
530,23820,10587.25
531,23820,10607.23
532,23816,10627.20
533,23816,10647.18
534,23812,10667.16
535,23816,10687.13
536,23816,10707.11
537,23820,10727.08
538,23820,10747.06
539,23824,10767.04
540,23824,10787.01
541,23828,10806.99
542,23824,10826.96
543,23832,10846.94
544,23832,10866.92
545,23820,10886.89
546,23804,10906.87
547,23792,10926.84
548,23772,10946.82
549,23760,10966.80
550,23756,10986.77
551,23756,11006.75
552,23756,11026.72
553,23760,11046.70
554,23764,11066.68
555,23764,11086.65
556,23764,11106.63
557,23764,11126.60
558,23760,11146.58
559,23756,11166.56
560,23748,11186.53
561,23740,11206.51
562,23736,11226.48
563,23732,11246.46
564,23728,11266.44
565,23724,11286.41
566,23724,11306.39
567,23724,11326.36
568,23720,11346.34
569,23724,11366.31
570,23724,11386.29
571,23724,11406.27
572,23724,11426.24
573,23720,11446.22
574,23720,11466.19
575,23720,11486.17
576,23720,11506.15
577,23720,11526.12
578,23696,11546.10
579,23676,11566.07
580,23648,11586.05
581,23628,11606.03
582,23612,11626.00
583,23604,11645.98
584,23600,11665.95
585,23600,11685.93
586,23600,11705.91
587,23600,11725.88
588,23600,11745.86
589,23596,11765.83
590,23592,11785.81
591,23588,11805.79
592,23580,11825.76
593,23568,11845.74
594,23564,11865.71
595,23556,11885.69
596,23552,11905.67
597,23556,11925.64
598,23552,11945.62
599,23544,11965.59
600,23544,11985.57
601,23548,12005.55
602,23548,12025.52
603,23544,12045.50
604,23544,12065.47
605,23540,12085.45
606,23536,12105.43
607,23536,12125.40
608,23536,12145.38
609,23532,12165.35
610,23512,12185.33
611,23488,12205.30
612,23460,12225.28
613,23432,12245.26
614,23416,12265.23
615,23400,12285.21
616,23392,12305.18
617,23396,12325.16
618,23396,12345.14
619,23396,12365.11
620,23396,12385.09
621,23400,12405.06
622,23396,12425.04
623,23392,12445.02
624,23384,12464.99
625,23376,12484.97
626,23368,12504.94
627,23368,12524.92
628,23364,12544.90
629,23364,12564.87
630,23360,12584.85
631,23360,12604.82
632,23364,12624.80
633,23368,12644.78
634,23368,12664.75
635,23368,12684.73
636,23368,12704.70
637,23368,12724.68
638,23368,12744.66
639,23372,12764.63
640,23376,12784.61
641,23376,12804.58
642,23380,12824.56
643,23372,12844.54
644,23348,12864.51
645,23316,12884.49
646,23292,12904.46
647,23264,12924.44
648,23248,12944.41
649,23240,12964.39
650,23236,12984.37
651,23236,13004.34
652,23236,13024.32
653,23244,13044.29
654,23240,13064.27
655,23236,13084.25
656,23228,13104.22
657,23224,13124.20
658,23212,13144.17
659,23200,13164.15
660,23196,13184.13
661,23196,13204.10
662,23196,13224.08
663,23196,13244.05
664,23196,13264.03
665,23196,13284.01
666,23200,13303.98
667,23200,13323.96
668,23204,13343.93
669,23208,13363.91
670,23208,13383.89
671,23208,13403.86
672,23212,13423.84
673,23220,13443.81
674,23212,13463.79
675,23192,13483.77
676,23164,13503.74
677,23132,13523.72
678,23100,13543.69
679,23084,13563.67
680,23072,13583.65
681,23068,13603.62
682,23064,13623.60
683,23064,13643.57
684,23064,13663.55
685,23064,13683.53
686,23060,13703.50
687,23052,13723.48
688,23040,13743.45
689,23024,13763.43
690,23020,13783.40
691,23008,13803.38
692,23000,13823.36
693,22996,13843.33
694,22996,13863.31
695,22996,13883.28
696,22996,13903.26
697,22996,13923.24
698,22996,13943.21
699,23000,13963.19
700,23000,13983.16
701,23000,14003.14
702,23004,14023.12
703,23008,14043.09
704,23008,14063.07
705,22988,14083.04
706,22960,14103.02
707,22916,14123.00
708,22876,14142.97
709,22844,14162.95
710,22824,14182.92
711,22816,14202.90
712,22812,14222.88
713,22812,14242.85
714,22816,14262.83
715,22820,14282.80
716,22816,14302.78
717,22812,14322.76
718,22812,14342.73
719,22800,14362.71
720,22796,14382.68
721,22784,14402.66
722,22780,14422.64
723,22776,14442.61
724,22776,14462.59
725,22780,14482.56
726,22780,14502.54
727,22784,14522.51
728,22788,14542.49
729,22792,14562.47
730,22796,14582.44
731,22796,14602.42
732,22800,14622.39
733,22804,14642.37
734,22804,14662.35
735,22812,14682.32
736,22804,14702.30
737,22776,14722.27
738,22728,14742.25
739,22672,14762.23
740,22620,14782.20
741,22580,14802.18
742,22556,14822.15
743,22536,14842.13
744,22528,14862.11
745,22528,14882.08
746,22528,14902.06
747,22532,14922.03
748,22536,14942.01
749,22536,14961.99
750,22528,14981.96
751,22520,15001.94
752,22512,15021.91
753,22508,15041.89
754,22500,15061.87
755,22496,15081.84
756,22500,15101.82
757,22504,15121.79
758,22508,15141.77
759,22520,15161.75
760,22528,15181.72
761,22536,15201.70
762,22544,15221.67
763,22552,15241.65
764,22560,15261.63
765,22568,15281.60
766,22576,15301.58
767,22588,15321.55
768,22596,15341.53
769,22600,15361.50
770,22584,15381.48
771,22544,15401.46
772,22484,15421.43
773,22420,15441.41
774,22368,15461.38
775,22332,15481.36
776,22316,15501.34
777,22312,15521.31
778,22312,15541.29
779,22316,15561.26
780,22324,15581.24
781,22332,15601.22
782,22340,15621.19
783,22340,15641.17
784,22332,15661.14
785,22328,15681.12
786,22316,15701.10
787,22316,15721.07
788,22316,15741.05
789,22320,15761.02
790,22328,15781.00
791,22336,15800.98
792,22340,15820.95
793,22356,15840.93
794,22372,15860.90
795,22388,15880.88
796,22396,15900.86
797,22412,15920.83
798,22424,15940.81
799,22436,15960.78
800,22448,15980.76
801,22460,16000.74
802,22476,16020.71
803,22488,16040.69
804,22484,16060.66
805,22456,16080.64
806,22408,16100.61
807,22344,16120.59
808,22292,16140.57
809,22256,16160.54
810,22240,16180.52
811,22236,16200.49
812,22232,16220.47
813,22240,16240.45
814,22252,16260.42
815,22264,16280.40
816,22268,16300.37
817,22268,16320.35
818,22264,16340.33
819,22256,16360.30
820,22248,16380.28
821,22244,16400.25
822,22236,16420.23
823,22236,16440.21
824,22236,16460.18
825,22244,16480.16
826,22248,16500.13
827,22252,16520.11
828,22264,16540.09
829,22272,16560.06
830,22284,16580.04
831,22296,16600.01
832,22304,16619.99
833,22320,16639.97
834,22336,16659.94
835,22348,16679.92
836,22356,16699.89
837,22372,16719.87
838,22380,16739.85
839,22388,16759.82
840,22368,16779.80
841,22328,16799.77
842,22268,16819.75
843,22216,16839.72
844,22180,16859.70
845,22160,16879.68
846,22156,16899.65
847,22156,16919.63
848,22168,16939.60
849,22184,16959.58
850,22196,16979.56
851,22208,16999.53
852,22216,17019.51
853,22220,17039.48
854,22220,17059.46
855,22212,17079.44
856,22212,17099.41
857,22212,17119.39
858,22216,17139.36
859,22224,17159.34
860,22228,17179.32
861,22236,17199.29
862,22252,17219.27
863,22264,17239.24
864,22280,17259.22
865,22288,17279.20
866,22296,17299.17
867,22308,17319.15
868,22320,17339.12
869,22336,17359.10
870,22352,17379.08
871,22360,17399.05
872,22376,17419.03
873,22384,17439.00
874,22400,17458.98
875,22412,17478.96
876,22432,17498.93
877,22444,17518.91
878,22448,17538.88
879,22436,17558.86
880,22400,17578.84
881,22344,17598.81
882,22288,17618.79
883,22240,17638.76
884,22216,17658.74
885,22200,17678.71
886,22204,17698.69
887,22212,17718.67
888,22224,17738.64
889,22232,17758.62
890,22244,17778.59
891,22256,17798.57
892,22264,17818.55
893,22264,17838.52
894,22264,17858.50
895,22260,17878.47
896,22260,17898.45
897,22260,17918.43
898,22260,17938.40
899,22268,17958.38
900,22276,17978.35
901,22284,17998.33
902,22296,18018.31
903,22308,18038.28
904,22320,18058.26
905,22328,18078.23
906,22348,18098.21
907,22364,18118.19
908,22372,18138.16
909,22384,18158.14
910,22396,18178.11
911,22404,18198.09
912,22420,18218.07
913,22432,18238.04
914,22444,18258.02
915,22456,18277.99
916,22468,18297.97
917,22484,18317.95
918,22500,18337.92
919,22504,18357.90
920,22484,18377.87
921,22444,18397.85
922,22388,18417.82
923,22336,18437.80
924,22296,18457.78
925,22280,18477.75
926,22272,18497.73
927,22276,18517.70
928,22288,18537.68
929,22300,18557.66
930,22312,18577.63
931,22324,18597.61
932,22332,18617.58
933,22336,18637.56
934,22332,18657.54
935,22328,18677.51
936,22324,18697.49
937,22324,18717.46
938,22320,18737.44
939,22324,18757.42
940,22328,18777.39
941,22340,18797.37
942,22348,18817.34
943,22360,18837.32
944,22368,18857.30
945,22380,18877.27
946,22396,18897.25
947,22412,18917.22
948,22424,18937.20
949,22436,18957.18
950,22444,18977.15
951,22452,18997.13
952,22460,19017.10
953,22476,19037.08
954,22484,19057.06
955,22500,19077.03
956,22504,19097.01
957,22492,19116.98
958,22456,19136.96
959,22408,19156.94
960,22348,19176.91
961,22300,19196.89
962,22276,19216.86
963,22264,19236.84
964,22272,19256.81
965,22280,19276.79
966,22292,19296.77
967,22308,19316.74
968,22324,19336.72
969,22336,19356.69
970,22336,19376.67
971,22332,19396.65
972,22324,19416.62
973,22320,19436.60
974,22324,19456.57
975,22324,19476.55
976,22328,19496.53
977,22332,19516.50
978,22344,19536.48
979,22352,19556.45
980,22368,19576.43
981,22380,19596.41
982,22388,19616.38
983,22400,19636.36
984,22412,19656.33
985,22424,19676.31
986,22432,19696.29
987,22444,19716.26
988,22456,19736.24
989,22468,19756.21
990,22476,19776.19
991,22488,19796.17
992,22492,19816.14
993,22480,19836.12
994,22444,19856.09
995,22388,19876.07
996,22324,19896.05
997,22272,19916.02
998,22240,19936.00
999,22228,19955.97
1000,22228,19975.95
1001,22232,19995.92
1002,22240,20015.90
1003,22248,20035.88
1004,22260,20055.85
1005,22272,20075.83
1006,22276,20095.80
1007,22276,20115.78
1008,22268,20135.76
1009,22264,20155.73
1010,22260,20175.71
1011,22260,20195.68
1012,22264,20215.66
1013,22268,20235.64
1014,22272,20255.61
1015,22288,20275.59
1016,22300,20295.56
1017,22312,20315.54
1018,22324,20335.52
1019,22332,20355.49
1020,22352,20375.47
1021,22364,20395.44
1022,22380,20415.42
1023,22392,20435.40
1024,22404,20455.37
1025,22412,20475.35
1026,22420,20495.32
1027,22432,20515.30
1028,22428,20535.28
1029,22400,20555.25
1030,22352,20575.23
1031,22292,20595.20
1032,22240,20615.18
1033,22204,20635.16
1034,22180,20655.13
1035,22176,20675.11
1036,22176,20695.08
1037,22188,20715.06
1038,22208,20735.04
1039,22228,20755.01
1040,22236,20774.99
1041,22248,20794.96
1042,22252,20814.94
1043,22252,20834.91
1044,22244,20854.89
1045,22240,20874.87
1046,22236,20894.84
1047,22236,20914.82
1048,22244,20934.79
1049,22252,20954.77
1050,22268,20974.75
1051,22276,20994.72
1052,22292,21014.70
1053,22304,21034.67
1054,22320,21054.65
1055,22332,21074.63
1056,22340,21094.60
1057,22356,21114.58
1058,22368,21134.55
1059,22380,21154.53
1060,22396,21174.51
1061,22408,21194.48
1062,22408,21214.46
1063,22384,21234.43
1064,22336,21254.41
1065,22280,21274.39
1066,22220,21294.36
1067,22176,21314.34
1068,22152,21334.31
1069,22144,21354.29
1070,22148,21374.27
1071,22164,21394.24
1072,22184,21414.22
1073,22196,21434.19
1074,22212,21454.17
1075,22224,21474.15
1076,22220,21494.12
1077,22212,21514.10
1078,22204,21534.07
1079,22196,21554.05
1080,22196,21574.02
1081,22192,21594.00
1082,22200,21613.98
1083,22204,21633.95
1084,22216,21653.93
1085,22228,21673.90
1086,22240,21693.88
1087,22248,21713.86
1088,22264,21733.83
1089,22272,21753.81
1090,22284,21773.78
1091,22296,21793.76
1092,22304,21813.74
1093,22292,21833.71
1094,22256,21853.69
1095,22204,21873.66
1096,22140,21893.64
1097,22092,21913.62
1098,22060,21933.59
1099,22044,21953.57
1100,22040,21973.54
1101,22052,21993.52
1102,22072,22013.50
1103,22092,22033.47
1104,22108,22053.45
1105,22124,22073.42
1106,22128,22093.40
1107,22124,22113.38
1108,22120,22133.35
1109,22108,22153.33
1110,22104,22173.30
1111,22100,22193.28
1112,22104,22213.26
1113,22108,22233.23
1114,22120,22253.21
1115,22128,22273.18
1116,22140,22293.16
1117,22156,22313.13
1118,22168,22333.11
1119,22180,22353.09
1120,22188,22373.06
1121,22204,22393.04
1122,22216,22413.01
1123,22224,22432.99
1124,22216,22452.97
1125,22176,22472.94
1126,22116,22492.92
1127,22040,22512.89
1128,21980,22532.87
1129,21936,22552.85
1130,21912,22572.82
1131,21908,22592.80
1132,21916,22612.77
1133,21932,22632.75
1134,21948,22652.73
1135,21968,22672.70
1136,21984,22692.68
1137,21988,22712.65
1138,21988,22732.63
1139,21988,22752.61
1140,21984,22772.58
1141,21976,22792.56
1142,21976,22812.53
1143,21976,22832.51
1144,21984,22852.49
1145,21992,22872.46
1146,22008,22892.44
1147,22016,22912.41
1148,22032,22932.39
1149,22048,22952.37
1150,22064,22972.34
1151,22076,22992.32
1152,22088,23012.29
1153,22104,23032.27
1154,22112,23052.25
1155,22116,23072.22
1156,22076,23092.20
1157,22016,23112.17
1158,21944,23132.15
1159,21876,23152.12
1160,21828,23172.10
1161,21804,23192.08
1162,21800,23212.05
1163,21808,23232.03
1164,21820,23252.00
1165,21840,23271.98
1166,21856,23291.96
1167,21872,23311.93
1168,21880,23331.91
1169,21880,23351.88
1170,21876,23371.86
1171,21868,23391.84
1172,21860,23411.81
1173,21860,23431.79
1174,21864,23451.76
1175,21872,23471.74
1176,21884,23491.72
1177,21896,23511.69
1178,21908,23531.67
1179,21924,23551.64
1180,21940,23571.62
1181,21956,23591.60
1182,21972,23611.57
1183,21992,23631.55
1184,22008,23651.52
1185,22012,23671.50
1186,21996,23691.48
1187,21948,23711.45
1188,21888,23731.43
1189,21820,23751.40
1190,21768,23771.38
1191,21740,23791.36
1192,21732,23811.33
1193,21736,23831.31
1194,21752,23851.28
1195,21772,23871.26
1196,21792,23891.23
1197,21808,23911.21
1198,21824,23931.19
1199,21824,23951.16
1200,21812,23971.14
1201,21800,23991.11
1202,21796,24011.09
1203,21796,24031.07
1204,21796,24051.04
1205,21804,24071.02
1206,21812,24090.99
1207,21824,24110.97
1208,21836,24130.95
1209,21852,24150.92
1210,21868,24170.90
1211,21888,24190.87
1212,21900,24210.85
1213,21920,24230.83
1214,21932,24250.80
1215,21940,24270.78
1216,21908,24290.75
1217,21856,24310.73
1218,21772,24330.71
1219,21708,24350.68
1220,21656,24370.66
1221,21636,24390.63
1222,21632,24410.61
1223,21640,24430.59
1224,21656,24450.56
1225,21684,24470.54
1226,21708,24490.51
1227,21724,24510.49
1228,21732,24530.47
1229,21728,24550.44
1230,21720,24570.42
1231,21712,24590.39
1232,21708,24610.37
1233,21708,24630.35
1234,21708,24650.32
1235,21716,24670.30
1236,21724,24690.27
1237,21740,24710.25
1238,21756,24730.22
1239,21768,24750.20
1240,21780,24770.18
1241,21796,24790.15
1242,21812,24810.13
1243,21828,24830.10
1244,21840,24850.08
1245,21852,24870.06
1246,21836,24890.03
1247,21780,24910.01
1248,21696,24929.98
1249,21620,24949.96
1250,21552,24969.94
1251,21512,24989.91
1252,21504,25009.89
1253,21508,25029.86
1254,21524,25049.84
1255,21544,25069.82
1256,21564,25089.79
1257,21584,25109.77
1258,21596,25129.74
1259,21600,25149.72
1260,21592,25169.70
1261,21584,25189.67
1262,21580,25209.65
1263,21580,25229.62
1264,21584,25249.60
1265,21592,25269.58
1266,21600,25289.55
1267,21616,25309.53
1268,21632,25329.50
1269,21648,25349.48
1270,21660,25369.46
1271,21676,25389.43
1272,21692,25409.41
1273,21708,25429.38
1274,21724,25449.36
1275,21744,25469.33
1276,21756,25489.31
1277,21760,25509.29
1278,21732,25529.26
1279,21664,25549.24
1280,21580,25569.21
1281,21500,25589.19
1282,21448,25609.17
1283,21424,25629.14
1284,21416,25649.12
1285,21424,25669.09
1286,21440,25689.07
1287,21464,25709.05
1288,21484,25729.02
1289,21500,25749.00
1290,21500,25768.97
1291,21500,25788.95
1292,21488,25808.93
1293,21476,25828.90
1294,21468,25848.88
1295,21468,25868.85
1296,21464,25888.83
1297,21476,25908.81
1298,21488,25928.78
1299,21504,25948.76
1300,21520,25968.73
1301,21536,25988.71
1302,21552,26008.69
1303,21564,26028.66
1304,21584,26048.64
1305,21604,26068.61
1306,21620,26088.59
1307,21632,26108.57
1308,21648,26128.54
1309,21660,26148.52
1310,21676,26168.49
1311,21668,26188.47
1312,21624,26208.45
1313,21552,26228.42
1314,21476,26248.40
1315,21408,26268.37
1316,21372,26288.35
1317,21356,26308.32
1318,21364,26328.30
1319,21372,26348.28
1320,21396,26368.25
1321,21424,26388.23
1322,21448,26408.20
1323,21460,26428.18
1324,21464,26448.16
1325,21460,26468.13
1326,21448,26488.11
1327,21444,26508.08
1328,21440,26528.06
1329,21440,26548.04
1330,21452,26568.01
1331,21460,26587.99
1332,21476,26607.96
1333,21488,26627.94
1334,21504,26647.92
1335,21524,26667.89
1336,21540,26687.87
1337,21560,26707.84
1338,21580,26727.82
1339,21596,26747.80
1340,21612,26767.77
1341,21624,26787.75
1342,21640,26807.72
1343,21656,26827.70
1344,21652,26847.68
1345,21620,26867.65
1346,21552,26887.63
1347,21476,26907.60
1348,21408,26927.58
1349,21364,26947.56
1350,21344,26967.53
1351,21340,26987.51
1352,21352,27007.48
1353,21376,27027.46
1354,21400,27047.43
1355,21424,27067.41
1356,21448,27087.39
1357,21452,27107.36
1358,21452,27127.34
1359,21440,27147.31
1360,21432,27167.29
1361,21424,27187.27
1362,21428,27207.24
1363,21428,27227.22
1364,21440,27247.19
1365,21456,27267.17
1366,21472,27287.15
1367,21488,27307.12
1368,21504,27327.10
1369,21524,27347.07
1370,21540,27367.05
1371,21556,27387.03
1372,21568,27407.00
1373,21584,27426.98
1374,21600,27446.95
1375,21612,27466.93
1376,21624,27486.91
1377,21640,27506.88
1378,21648,27526.86
1379,21640,27546.83
1380,21596,27566.81
1381,21512,27586.79
1382,21420,27606.76
1383,21344,27626.74
1384,21296,27646.71
1385,21280,27666.69
1386,21284,27686.67
1387,21296,27706.64
1388,21316,27726.62
1389,21344,27746.59
1390,21368,27766.57
1391,21384,27786.54
1392,21396,27806.52
1393,21396,27826.50
1394,21392,27846.47
1395,21380,27866.45
1396,21372,27886.42
1397,21376,27906.40
1398,21384,27926.38
1399,21396,27946.35
1400,21412,27966.33
1401,21432,27986.30
1402,21448,28006.28
1403,21464,28026.26
1404,21480,28046.23
1405,21496,28066.21
1406,21512,28086.18
1407,21528,28106.16
1408,21540,28126.14
1409,21556,28146.11
1410,21568,28166.09
1411,21576,28186.06
1412,21592,28206.04
1413,21608,28226.02
1414,21616,28245.99
1415,21596,28265.97
1416,21536,28285.94
1417,21452,28305.92
1418,21360,28325.90
1419,21296,28345.87
1420,21260,28365.85
1421,21248,28385.82
1422,21256,28405.80
1423,21276,28425.78
1424,21304,28445.75
1425,21332,28465.73
1426,21356,28485.70
1427,21376,28505.68
1428,21384,28525.66
1429,21384,28545.63
1430,21380,28565.61
1431,21372,28585.58
1432,21372,28605.56
1433,21372,28625.53
1434,21384,28645.51
1435,21396,28665.49
1436,21412,28685.46
1437,21428,28705.44
1438,21448,28725.41
1439,21464,28745.39
1440,21488,28765.37
1441,21504,28785.34
1442,21520,28805.32
1443,21540,28825.29
1444,21560,28845.27
1445,21568,28865.25
1446,21584,28885.22
1447,21596,28905.20
1448,21608,28925.17
1449,21616,28945.15
1450,21624,28965.13
1451,21592,28985.10
1452,21524,29005.08
1453,21448,29025.05
1454,21364,29045.03
1455,21312,29065.01
1456,21276,29084.98
1457,21268,29104.96
1458,21280,29124.93
1459,21300,29144.91
1460,21328,29164.89
1461,21360,29184.86
1462,21388,29204.84
1463,21404,29224.81
1464,21412,29244.79
1465,21404,29264.77
1466,21396,29284.74
1467,21388,29304.72
1468,21384,29324.69
1469,21388,29344.67
1470,21396,29364.64
1471,21404,29384.62
1472,21424,29404.60
1473,21444,29424.57
1474,21468,29444.55
1475,21488,29464.52
1476,21504,29484.50
1477,21516,29504.48
1478,21532,29524.45
1479,21544,29544.43
1480,21564,29564.40
1481,21580,29584.38
1482,21596,29604.36
1483,21592,29624.33
1484,21552,29644.31
1485,21484,29664.28
1486,21404,29684.26
1487,21336,29704.24
1488,21288,29724.21
1489,21268,29744.19
1490,21264,29764.16
1491,21280,29784.14
1492,21300,29804.12
1493,21332,29824.09
1494,21356,29844.07
1495,21380,29864.04
1496,21388,29884.02
1497,21384,29904.00
1498,21372,29923.97
1499,21360,29943.95
1500,21348,29963.92
1501,21344,29983.90
1502,21352,30003.88
1503,21364,30023.85
1504,21376,30043.83
1505,21396,30063.80
1506,21412,30083.78
1507,21432,30103.76
1508,21448,30123.73
1509,21464,30143.71
1510,21480,30163.68
1511,21496,30183.66
1512,21516,30203.63
1513,21536,30223.61
1514,21548,30243.59
1515,21524,30263.56
1516,21460,30283.54
1517,21376,30303.51
1518,21292,30323.49
1519,21224,30343.47
1520,21192,30363.44
1521,21172,30383.42
1522,21184,30403.39
1523,21204,30423.37
1524,21228,30443.35
1525,21264,30463.32
1526,21292,30483.30
1527,21308,30503.27
1528,21316,30523.25
1529,21308,30543.23
1530,21304,30563.20
1531,21296,30583.18
1532,21288,30603.15
1533,21284,30623.13
1534,21288,30643.11
1535,21300,30663.08
1536,21316,30683.06
1537,21332,30703.03
1538,21348,30723.01
1539,21364,30742.99
1540,21380,30762.96
1541,21396,30782.94
1542,21412,30802.91
1543,21424,30822.89
1544,21444,30842.87
1545,21456,30862.84
1546,21460,30882.82
1547,21428,30902.79
1548,21352,30922.77
1549,21260,30942.74
1550,21172,30962.72
1551,21116,30982.70
1552,21092,31002.67
1553,21088,31022.65
1554,21100,31042.62
1555,21124,31062.60
1556,21156,31082.58
1557,21184,31102.55
1558,21212,31122.53
1559,21224,31142.50
1560,21228,31162.48
1561,21228,31182.46
1562,21220,31202.43
1563,21216,31222.41
1564,21208,31242.38
1565,21216,31262.36
1566,21228,31282.34
1567,21244,31302.31
1568,21264,31322.29
1569,21284,31342.26
1570,21296,31362.24
1571,21316,31382.22
1572,21336,31402.19
1573,21352,31422.17
1574,21364,31442.14
1575,21376,31462.12
1576,21392,31482.10
1577,21408,31502.07
1578,21420,31522.05
1579,21400,31542.02
1580,21336,31562.00
1581,21252,31581.98
1582,21168,31601.95
1583,21100,31621.93
1584,21060,31641.90
1585,21052,31661.88
1586,21060,31681.86
1587,21084,31701.83
1588,21112,31721.81
1589,21144,31741.78
1590,21176,31761.76
1591,21192,31781.73
1592,21204,31801.71
1593,21200,31821.69
1594,21192,31841.66
1595,21184,31861.64
1596,21180,31881.61
1597,21180,31901.59
1598,21192,31921.57
1599,21204,31941.54
1600,21216,31961.52
1601,21240,31981.49
1602,21256,32001.47
1603,21276,32021.45
1604,21292,32041.42
1605,21304,32061.40
1606,21324,32081.37
1607,21340,32101.35
1608,21360,32121.33
1609,21372,32141.30
1610,21356,32161.28
1611,21296,32181.25
1612,21216,32201.23
1613,21136,32221.21
1614,21072,32241.18
1615,21036,32261.16
1616,21028,32281.13
1617,21036,32301.11
1618,21056,32321.09
1619,21088,32341.06
1620,21120,32361.04
1621,21148,32381.01
1622,21172,32400.99
1623,21176,32420.97
1624,21172,32440.94
1625,21156,32460.92
1626,21144,32480.89
1627,21136,32500.87
1628,21136,32520.84
1629,21144,32540.82
1630,21160,32560.80
1631,21172,32580.77
1632,21188,32600.75
1633,21208,32620.72
1634,21224,32640.70
1635,21240,32660.68
1636,21256,32680.65
1637,21276,32700.63
1638,21292,32720.60
1639,21308,32740.58
1640,21296,32760.56
1641,21240,32780.53
1642,21156,32800.51
1643,21068,32820.48
1644,20996,32840.46
1645,20948,32860.44
1646,20932,32880.41
1647,20940,32900.39
1648,20960,32920.36
1649,20988,32940.34
1650,21020,32960.32
1651,21048,32980.29
1652,21068,33000.27
1653,21076,33020.24
1654,21076,33040.22
1655,21060,33060.20
1656,21052,33080.17
1657,21044,33100.15
1658,21044,33120.12
1659,21052,33140.10
1660,21064,33160.08
1661,21076,33180.05
1662,21092,33200.03
1663,21108,33220.00
1664,21124,33239.98
1665,21144,33259.96
1666,21160,33279.93
1667,21180,33299.91
1668,21192,33319.88
1669,21212,33339.86
1670,21212,33359.83
1671,21176,33379.81
1672,21100,33399.79
1673,21000,33419.76
1674,20916,33439.74
1675,20860,33459.71
1676,20836,33479.69
1677,20836,33499.67
1678,20848,33519.64
1679,20876,33539.62
1680,20908,33559.59
1681,20936,33579.57
1682,20960,33599.55
1683,20968,33619.52
1684,20976,33639.50
1685,20972,33659.47
1686,20964,33679.45
1687,20956,33699.43
1688,20956,33719.40
1689,20964,33739.38
1690,20976,33759.35
1691,20988,33779.33
1692,21008,33799.31
1693,21024,33819.28
1694,21040,33839.26
1695,21060,33859.23
1696,21076,33879.21
1697,21092,33899.19
1698,21104,33919.16
1699,21116,33939.14
1700,21132,33959.11
1701,21144,33979.09
1702,21136,33999.07
1703,21084,34019.04
1704,20992,34039.02
1705,20896,34058.99
1706,20816,34078.97
1707,20768,34098.94
1708,20752,34118.92
1709,20756,34138.90
1710,20772,34158.87
1711,20800,34178.85
1712,20828,34198.82
1713,20864,34218.80
1714,20876,34238.78
1715,20888,34258.75
1716,20888,34278.73
1717,20888,34298.70
1718,20880,34318.68
1719,20876,34338.66
1720,20876,34358.63
1721,20884,34378.61
1722,20904,34398.58
1723,20916,34418.56
1724,20932,34438.54
1725,20952,34458.51
1726,20972,34478.49
1727,20992,34498.46
1728,21012,34518.44
1729,21028,34538.42
1730,21044,34558.39
1731,21060,34578.37
1732,21080,34598.34
1733,21088,34618.32
1734,21100,34638.30
1735,21108,34658.27
1736,21100,34678.25
1737,21040,34698.22
1738,20948,34718.20
1739,20860,34738.18
1740,20792,34758.15
1741,20756,34778.13
1742,20752,34798.10
1743,20764,34818.08
1744,20788,34838.05
1745,20816,34858.03
1746,20848,34878.01
1747,20876,34897.98
1748,20896,34917.96
1749,20904,34937.93
1750,20892,34957.91
1751,20880,34977.89
1752,20872,34997.86
1753,20864,35017.84
1754,20868,35037.81
1755,20872,35057.79
1756,20880,35077.77
1757,20896,35097.74
1758,20912,35117.72
1759,20928,35137.69
1760,20948,35157.67
1761,20960,35177.65
1762,20976,35197.62
1763,20988,35217.60
1764,21008,35237.57
1765,21020,35257.55
1766,21032,35277.53
1767,21048,35297.50
1768,21048,35317.48
1769,21008,35337.45
1770,20940,35357.43
1771,20860,35377.41
1772,20784,35397.38
1773,20736,35417.36
1774,20720,35437.33
1775,20728,35457.31
1776,20752,35477.29
1777,20784,35497.26
1778,20816,35517.24
1779,20852,35537.21
1780,20868,35557.19
1781,20872,35577.17
1782,20868,35597.14
1783,20856,35617.12
1784,20840,35637.09
1785,20836,35657.07
1786,20840,35677.04
1787,20844,35697.02
1788,20856,35717.00
1789,20868,35736.97
1790,20884,35756.95
1791,20900,35776.92
1792,20920,35796.90
1793,20936,35816.88
1794,20956,35836.85
1795,20968,35856.83
1796,20984,35876.80
1797,20996,35896.78
1798,21012,35916.76
1799,21024,35936.73
1800,21028,35956.71
1801,20992,35976.68
1802,20912,35996.66
1803,20820,36016.64
1804,20740,36036.61
1805,20692,36056.59
1806,20676,36076.56
1807,20688,36096.54
1808,20712,36116.52
1809,20740,36136.49
1810,20772,36156.47
1811,20808,36176.44
1812,20832,36196.42
1813,20848,36216.40
1814,20844,36236.37
1815,20836,36256.35
1816,20832,36276.32
1817,20832,36296.30
1818,20828,36316.28
1819,20836,36336.25
1820,20840,36356.23
1821,20860,36376.20
1822,20880,36396.18
1823,20896,36416.15
1824,20916,36436.13
1825,20936,36456.11
1826,20952,36476.08
1827,20968,36496.06
1828,20980,36516.03
1829,20996,36536.01
1830,21008,36555.99
1831,21024,36575.96
1832,21036,36595.94
1833,21000,36615.91
1834,20924,36635.89
1835,20824,36655.87
1836,20736,36675.84
1837,20684,36695.82
1838,20660,36715.79
1839,20664,36735.77
1840,20680,36755.75
1841,20712,36775.72
1842,20748,36795.70
1843,20784,36815.67
1844,20812,36835.65
1845,20824,36855.63
1846,20832,36875.60
1847,20832,36895.58
1848,20824,36915.55
1849,20820,36935.53
1850,20816,36955.51
1851,20820,36975.48
1852,20836,36995.46
1853,20852,37015.43
1854,20864,37035.41
1855,20880,37055.39
1856,20900,37075.36
1857,20920,37095.34
1858,20940,37115.31
1859,20956,37135.29
1860,20968,37155.27
1861,20984,37175.24
1862,21000,37195.22
1863,21020,37215.19
1864,21028,37235.17
1865,21012,37255.14
1866,20952,37275.12
1867,20868,37295.10
1868,20784,37315.07
1869,20712,37335.05
1870,20676,37355.02
1871,20672,37375.00
1872,20692,37394.98
1873,20724,37414.95
1874,20756,37434.93
1875,20788,37454.90
1876,20820,37474.88
1877,20832,37494.86
1878,20840,37514.83
1879,20840,37534.81
1880,20832,37554.78
1881,20816,37574.76
1882,20808,37594.74
1883,20812,37614.71
1884,20824,37634.69
1885,20840,37654.66
1886,20852,37674.64
1887,20868,37694.62
1888,20884,37714.59
1889,20908,37734.57
1890,20924,37754.54
1891,20944,37774.52
1892,20956,37794.50
1893,20976,37814.47
1894,20996,37834.45
1895,21004,37854.42
1896,20976,37874.40
1897,20904,37894.38
1898,20816,37914.35
1899,20740,37934.33
1900,20688,37954.30
1901,20676,37974.28
1902,20676,37994.25
1903,20700,38014.23
1904,20732,38034.21
1905,20768,38054.18
1906,20804,38074.16
1907,20824,38094.13
1908,20836,38114.11
1909,20836,38134.09
1910,20832,38154.06
1911,20824,38174.04
1912,20820,38194.01
1913,20820,38213.99
1914,20824,38233.97
1915,20840,38253.94
1916,20856,38273.92
1917,20872,38293.89
1918,20884,38313.87
1919,20900,38333.85
1920,20920,38353.82
1921,20932,38373.80
1922,20952,38393.77
1923,20964,38413.75
1924,20984,38433.73
1925,21000,38453.70
1926,21012,38473.68
1927,20980,38493.65
1928,20896,38513.63
1929,20800,38533.61
1930,20712,38553.58
1931,20656,38573.56
1932,20636,38593.53
1933,20640,38613.51
1934,20668,38633.49
1935,20700,38653.46
1936,20736,38673.44
1937,20768,38693.41
1938,20800,38713.39
1939,20812,38733.37
1940,20816,38753.34
1941,20812,38773.32
1942,20804,38793.29
1943,20796,38813.27
1944,20796,38833.24
1945,20804,38853.22
1946,20824,38873.20
1947,20840,38893.17
1948,20856,38913.15
1949,20868,38933.12
1950,20892,38953.10
1951,20912,38973.08
1952,20928,38993.05
1953,20948,39013.03
1954,20960,39033.00
1955,20972,39052.98
1956,20996,39072.96
1957,21004,39092.93
1958,20980,39112.91
1959,20908,39132.88
1960,20812,39152.86
1961,20720,39172.84
1962,20660,39192.81
1963,20632,39212.79
1964,20636,39232.76
1965,20652,39252.74
1966,20688,39272.72
1967,20720,39292.69
1968,20760,39312.67
1969,20788,39332.64
1970,20800,39352.62
1971,20808,39372.60
1972,20808,39392.57
1973,20796,39412.55
1974,20788,39432.52
1975,20780,39452.50
1976,20788,39472.48
1977,20804,39492.45
1978,20816,39512.43
1979,20832,39532.40
1980,20848,39552.38
1981,20872,39572.35
1982,20892,39592.33
1983,20908,39612.31
1984,20928,39632.28
1985,20940,39652.26
1986,20956,39672.23
1987,20980,39692.21
1988,20992,39712.19
1989,20992,39732.16
1990,20940,39752.14
1991,20860,39772.11
1992,20768,39792.09
1993,20692,39812.07
1994,20652,39832.04
1995,20640,39852.02
1996,20656,39871.99
1997,20688,39891.97
1998,20724,39911.95
1999,20764,39931.92
2000,20796,39951.90
2001,20816,39971.87
2002,20832,39991.85
2003,20828,40011.83
2004,20816,40031.80
2005,20800,40051.78
2006,20792,40071.75
2007,20796,40091.73
2008,20804,40111.71
2009,20816,40131.68
2010,20832,40151.66
2011,20848,40171.63
2012,20864,40191.61
2013,20888,40211.59
2014,20904,40231.56
2015,20916,40251.54
2016,20928,40271.51
2017,20952,40291.49
2018,20972,40311.46
2019,20988,40331.44
2020,20976,40351.42
2021,20912,40371.39
2022,20832,40391.37
2023,20744,40411.34
2024,20680,40431.32
2025,20644,40451.30
2026,20644,40471.27
2027,20656,40491.25
2028,20696,40511.22
2029,20732,40531.20
2030,20768,40551.18
2031,20796,40571.15
2032,20816,40591.13
2033,20816,40611.10
2034,20812,40631.08
2035,20796,40651.06
2036,20784,40671.03
2037,20780,40691.01
2038,20788,40710.98
2039,20800,40730.96
2040,20816,40750.94
2041,20828,40770.91
2042,20848,40790.89
2043,20868,40810.86
2044,20888,40830.84
2045,20900,40850.82
2046,20912,40870.79
2047,20932,40890.77
2048,20944,40910.74
2049,20960,40930.72
2050,20976,40950.70
2051,20976,40970.67
2052,20928,40990.65
2053,20844,41010.62
2054,20740,41030.60
2055,20660,41050.58
2056,20608,41070.55
2057,20596,41090.53
2058,20608,41110.50
2059,20640,41130.48
2060,20672,41150.45
2061,20704,41170.43
2062,20748,41190.41
2063,20768,41210.38
2064,20780,41230.36
2065,20780,41250.33
2066,20776,41270.31
2067,20768,41290.29
2068,20756,41310.26
2069,20760,41330.24
2070,20768,41350.21
2071,20784,41370.19
2072,20804,41390.17
2073,20824,41410.14
2074,20840,41430.12
2075,20860,41450.09
2076,20876,41470.07
2077,20892,41490.05
2078,20904,41510.02
2079,20920,41530.00
2080,20940,41549.97
2081,20952,41569.95
2082,20968,41589.93
2083,20956,41609.90
2084,20904,41629.88
2085,20808,41649.85
2086,20708,41669.83
2087,20636,41689.81
2088,20592,41709.78
2089,20584,41729.76
2090,20600,41749.73
2091,20624,41769.71
2092,20656,41789.69
2093,20692,41809.66
2094,20728,41829.64
2095,20748,41849.61
2096,20756,41869.59
2097,20752,41889.56
2098,20744,41909.54
2099,20736,41929.52
2100,20736,41949.49
2101,20728,41969.47
2102,20740,41989.44
2103,20760,42009.42
2104,20776,42029.40
2105,20800,42049.37
2106,20820,42069.35
2107,20832,42089.32
2108,20848,42109.30
2109,20864,42129.28
2110,20884,42149.25
2111,20904,42169.23
2112,20912,42189.20
2113,20928,42209.18
2114,20944,42229.16
2115,20940,42249.13
2116,20892,42269.11
2117,20808,42289.08
2118,20716,42309.06
2119,20644,42329.04
2120,20600,42349.01
2121,20596,42368.99
2122,20616,42388.96
2123,20644,42408.94
2124,20684,42428.92
2125,20720,42448.89
2126,20764,42468.87
2127,20784,42488.84
2128,20788,42508.82
2129,20784,42528.80
2130,20780,42548.77
2131,20764,42568.75
2132,20764,42588.72
2133,20760,42608.70
2134,20764,42628.68
2135,20772,42648.65
2136,20792,42668.63
2137,20808,42688.60
2138,20828,42708.58
2139,20840,42728.55
2140,20848,42748.53
2141,20868,42768.51
2142,20884,42788.48
2143,20892,42808.46
2144,20900,42828.43
2145,20912,42848.41
2146,20928,42868.39
2147,20940,42888.36
2148,20912,42908.34
2149,20844,42928.31
2150,20756,42948.29
2151,20680,42968.27
2152,20628,42988.24
2153,20608,43008.22
2154,20608,43028.19
2155,20632,43048.17
2156,20672,43068.15
2157,20716,43088.12
2158,20760,43108.10
2159,20784,43128.07
2160,20800,43148.05
2161,20808,43168.03
2162,20804,43188.00
2163,20788,43207.98
2164,20772,43227.95
2165,20772,43247.93
2166,20780,43267.91
2167,20792,43287.88
2168,20812,43307.86
2169,20824,43327.83
2170,20840,43347.81
2171,20864,43367.79
2172,20884,43387.76
2173,20892,43407.74
2174,20900,43427.71
2175,20920,43447.69
2176,20936,43467.66
2177,20952,43487.64
2178,20956,43507.62
2179,20928,43527.59
2180,20856,43547.57
2181,20780,43567.54
2182,20704,43587.52
2183,20648,43607.50
2184,20616,43627.47
2185,20620,43647.45
2186,20648,43667.42
2187,20692,43687.40
2188,20732,43707.38
2189,20768,43727.35
2190,20800,43747.33
2191,20820,43767.30
2192,20832,43787.28
2193,20824,43807.26
2194,20808,43827.23
2195,20800,43847.21
2196,20796,43867.18
2197,20804,43887.16
2198,20816,43907.14
2199,20828,43927.11
2200,20848,43947.09
2201,20868,43967.06
2202,20884,43987.04
2203,20900,44007.02
2204,20912,44026.99
2205,20928,44046.97
2206,20944,44066.94
2207,20964,44086.92
2208,20980,44106.90
2209,20984,44126.87
2210,20952,44146.85
2211,20872,44166.82
2212,20776,44186.80
2213,20684,44206.78
2214,20628,44226.75
2215,20608,44246.73
2216,20616,44266.70
2217,20640,44286.68
2218,20676,44306.65
2219,20712,44326.63
2220,20752,44346.61
2221,20780,44366.58
2222,20796,44386.56
2223,20796,44406.53
2224,20788,44426.51
2225,20772,44446.49
2226,20764,44466.46
2227,20764,44486.44
2228,20776,44506.41
2229,20788,44526.39
2230,20804,44546.37
2231,20820,44566.34
2232,20840,44586.32
2233,20856,44606.29
2234,20876,44626.27
2235,20888,44646.25
2236,20900,44666.22
2237,20916,44686.20
2238,20932,44706.17
2239,20944,44726.15
2240,20944,44746.13
2241,20908,44766.10
2242,20840,44786.08
2243,20744,44806.05
2244,20664,44826.03
2245,20612,44846.01
2246,20592,44865.98
2247,20600,44885.96
2248,20624,44905.93
2249,20656,44925.91
2250,20692,44945.89
2251,20728,44965.86
2252,20752,44985.84
2253,20768,45005.81
2254,20772,45025.79
2255,20768,45045.76
2256,20756,45065.74
2257,20756,45085.72
2258,20744,45105.69
2259,20756,45125.67
2260,20768,45145.64
2261,20784,45165.62
2262,20796,45185.60
2263,20816,45205.57
2264,20828,45225.55
2265,20840,45245.52
2266,20856,45265.50
2267,20868,45285.48
2268,20876,45305.45
2269,20892,45325.43
2270,20908,45345.40
2271,20920,45365.38
2272,20892,45385.36
2273,20824,45405.33
2274,20736,45425.31
2275,20656,45445.28
2276,20604,45465.26
2277,20584,45485.24
2278,20592,45505.21
2279,20616,45525.19
2280,20648,45545.16
2281,20692,45565.14
2282,20728,45585.12
2283,20756,45605.09
2284,20776,45625.07
2285,20780,45645.04
2286,20780,45665.02
2287,20768,45685.00
2288,20764,45704.97
2289,20768,45724.95
2290,20772,45744.92
2291,20788,45764.90
2292,20804,45784.88
2293,20824,45804.85
2294,20840,45824.83
2295,20864,45844.80
2296,20880,45864.78
2297,20896,45884.75
2298,20912,45904.73
2299,20924,45924.71
2300,20936,45944.68
2301,20952,45964.66
2302,20940,45984.63
2303,20884,46004.61
2304,20796,46024.59
2305,20716,46044.56
2306,20648,46064.54
2307,20620,46084.51
2308,20616,46104.49
2309,20632,46124.47
2310,20660,46144.44
2311,20696,46164.42
2312,20732,46184.39
2313,20760,46204.37
2314,20784,46224.35
2315,20784,46244.32
2316,20784,46264.30
2317,20772,46284.27
2318,20764,46304.25
2319,20756,46324.23
2320,20760,46344.20
2321,20764,46364.18
2322,20788,46384.15
2323,20816,46404.13
2324,20828,46424.11
2325,20836,46444.08
2326,20856,46464.06
2327,20880,46484.03
2328,20896,46504.01
2329,20912,46523.99
2330,20920,46543.96
2331,20936,46563.94
2332,20940,46583.91
2333,20908,46603.89
2334,20828,46623.86
2335,20736,46643.84
2336,20664,46663.82
2337,20616,46683.79
2338,20608,46703.77
2339,20616,46723.74
2340,20636,46743.72
2341,20664,46763.70
2342,20700,46783.67
2343,20732,46803.65
2344,20756,46823.62
2345,20764,46843.60
2346,20760,46863.58
2347,20752,46883.55
2348,20744,46903.53
2349,20736,46923.50
2350,20724,46943.48
2351,20728,46963.46
2352,20740,46983.43
2353,20756,47003.41
2354,20772,47023.38
2355,20792,47043.36
2356,20808,47063.34
2357,20824,47083.31
2358,20840,47103.29
2359,20856,47123.26
2360,20872,47143.24
2361,20884,47163.22
2362,20900,47183.19
2363,20920,47203.17
2364,20900,47223.14
2365,20836,47243.12
2366,20744,47263.10
2367,20668,47283.07
2368,20624,47303.05
2369,20608,47323.02
2370,20616,47343.00
2371,20636,47362.97
2372,20664,47382.95
2373,20708,47402.93
2374,20744,47422.90
2375,20764,47442.88
2376,20788,47462.85
2377,20792,47482.83
2378,20792,47502.81
2379,20792,47522.78
2380,20792,47542.76
2381,20788,47562.73
2382,20792,47582.71
2383,20804,47602.69
2384,20820,47622.66
2385,20836,47642.64
2386,20852,47662.61
2387,20868,47682.59
2388,20888,47702.57
2389,20908,47722.54
2390,20924,47742.52
2391,20940,47762.49
2392,20956,47782.47
2393,20976,47802.45
2394,20988,47822.42
2395,20984,47842.40
2396,20932,47862.37
2397,20852,47882.35
2398,20772,47902.33
2399,20708,47922.30
2400,20668,47942.28
2401,20660,47962.25
2402,20676,47982.23
2403,20700,48002.21
2404,20736,48022.18
2405,20772,48042.16
2406,20804,48062.13
2407,20832,48082.11
2408,20844,48102.09
2409,20848,48122.06
2410,20848,48142.04
2411,20844,48162.01
2412,20844,48181.99
2413,20852,48201.96
2414,20860,48221.94
2415,20876,48241.92
2416,20892,48261.89
2417,20908,48281.87
2418,20928,48301.84
2419,20948,48321.82
2420,20972,48341.80
2421,20984,48361.77
2422,21004,48381.75
2423,21020,48401.72
2424,21028,48421.70
2425,20996,48441.68
2426,20920,48461.65
2427,20832,48481.63
2428,20748,48501.60
2429,20704,48521.58
2430,20688,48541.56
2431,20692,48561.53
2432,20704,48581.51
2433,20732,48601.48
2434,20768,48621.46
2435,20804,48641.44
2436,20828,48661.41
2437,20840,48681.39
2438,20844,48701.36
2439,20844,48721.34
2440,20840,48741.32
2441,20840,48761.29
2442,20836,48781.27
2443,20844,48801.24
2444,20856,48821.22
2445,20868,48841.20
2446,20884,48861.17
2447,20904,48881.15
2448,20920,48901.12
2449,20936,48921.10
2450,20956,48941.07
2451,20968,48961.05
2452,20992,48981.03
2453,20988,49001.00
2454,20952,49020.98
2455,20884,49040.95
2456,20792,49060.93
2457,20716,49080.91
2458,20664,49100.88
2459,20648,49120.86
2460,20652,49140.83
2461,20672,49160.81
2462,20704,49180.79
2463,20736,49200.76
2464,20768,49220.74
2465,20792,49240.71
2466,20812,49260.69
2467,20816,49280.67
2468,20804,49300.64
2469,20796,49320.62
2470,20796,49340.59
2471,20800,49360.57
2472,20804,49380.55
2473,20816,49400.52
2474,20832,49420.50
2475,20856,49440.47
2476,20884,49460.45
2477,20904,49480.43
2478,20920,49500.40
2479,20940,49520.38
2480,20960,49540.35
2481,20984,49560.33
2482,21000,49580.31
2483,20996,49600.28
2484,20940,49620.26
2485,20864,49640.23
2486,20780,49660.21
2487,20700,49680.19
2488,20656,49700.16
2489,20644,49720.14
2490,20660,49740.11
2491,20680,49760.09
2492,20708,49780.06
2493,20736,49800.04
2494,20772,49820.02
2495,20796,49839.99
2496,20816,49859.97
2497,20820,49879.94
2498,20816,49899.92
2499,20816,49919.90
2500,20816,49939.87
2501,20820,49959.85
2502,20824,49979.82
2503,20832,49999.80
2504,20848,50019.78
2505,20872,50039.75
2506,20888,50059.73
2507,20908,50079.70
2508,20924,50099.68
2509,20944,50119.66
2510,20968,50139.63
2511,20964,50159.61
2512,20924,50179.58
2513,20844,50199.56
2514,20752,50219.54
2515,20676,50239.51
2516,20632,50259.49
2517,20620,50279.46
2518,20624,50299.44
2519,20644,50319.42
2520,20680,50339.39
2521,20716,50359.37
2522,20752,50379.34
2523,20772,50399.32
2524,20780,50419.30
2525,20784,50439.27
2526,20780,50459.25
2527,20768,50479.22
2528,20756,50499.20
2529,20764,50519.17
2530,20772,50539.15
2531,20784,50559.13
2532,20800,50579.10
2533,20816,50599.08
2534,20836,50619.05
2535,20856,50639.03
2536,20876,50659.01
2537,20896,50678.98
2538,20912,50698.96
2539,20904,50718.93
2540,20852,50738.91
2541,20768,50758.89
2542,20672,50778.86
2543,20596,50798.84
2544,20564,50818.81
2545,20556,50838.79
2546,20572,50858.77
2547,20592,50878.74
2548,20628,50898.72
2549,20656,50918.69
2550,20684,50938.67
2551,20712,50958.65
2552,20724,50978.62
2553,20720,50998.60
2554,20712,51018.57
2555,20712,51038.55
2556,20712,51058.53
2557,20720,51078.50
2558,20720,51098.48
2559,20732,51118.45
2560,20752,51138.43
2561,20780,51158.41
2562,20792,51178.38
2563,20812,51198.36
2564,20828,51218.33
2565,20848,51238.31
2566,20868,51258.29
2567,20888,51278.26
2568,20892,51298.24
2569,20864,51318.21
2570,20792,51338.19
2571,20692,51358.16
2572,20596,51378.14
2573,20532,51398.12
2574,20508,51418.09
2575,20512,51438.07
2576,20528,51458.04
2577,20552,51478.02
2578,20580,51498.00
2579,20608,51517.97
2580,20636,51537.95
2581,20660,51557.92
2582,20672,51577.90
2583,20676,51597.88
2584,20676,51617.85
2585,20684,51637.83
2586,20692,51657.80
2587,20692,51677.78
2588,20700,51697.76
2589,20720,51717.73
2590,20744,51737.71
2591,20760,51757.68
2592,20784,51777.66
2593,20804,51797.64
2594,20828,51817.61
2595,20844,51837.59
2596,20868,51857.56
2597,20880,51877.54
2598,20896,51897.52
2599,20916,51917.49
2600,20932,51937.47
2601,20920,51957.44
2602,20852,51977.42
2603,20748,51997.40
2604,20640,52017.37
2605,20564,52037.35
2606,20524,52057.32
2607,20512,52077.30
2608,20520,52097.27
2609,20552,52117.25
2610,20584,52137.23
2611,20612,52157.20
2612,20644,52177.18
2613,20664,52197.15
2614,20680,52217.13
2615,20684,52237.11
2616,20680,52257.08
2617,20672,52277.06
2618,20676,52297.03
2619,20684,52317.01
2620,20700,52336.99
2621,20712,52356.96
2622,20728,52376.94
2623,20752,52396.91
2624,20776,52416.89
2625,20800,52436.87
2626,20820,52456.84
2627,20840,52476.82
2628,20860,52496.79
2629,20880,52516.77
2630,20896,52536.75
2631,20916,52556.72
2632,20932,52576.70
2633,20944,52596.67
2634,20936,52616.65
2635,20884,52636.63
2636,20796,52656.60
2637,20692,52676.58
2638,20612,52696.55
2639,20568,52716.53
2640,20556,52736.51
2641,20568,52756.48
2642,20588,52776.46
2643,20620,52796.43
2644,20656,52816.41
2645,20684,52836.38
2646,20704,52856.36
2647,20708,52876.34
2648,20708,52896.31
2649,20700,52916.29
2650,20696,52936.26
2651,20692,52956.24
2652,20700,52976.22
2653,20712,52996.19
2654,20724,53016.17
2655,20744,53036.14
2656,20760,53056.12
2657,20784,53076.10
2658,20804,53096.07
2659,20828,53116.05
2660,20848,53136.02
2661,20868,53156.00
2662,20888,53175.98
2663,20904,53195.95
2664,20928,53215.93
2665,20940,53235.90
2666,20960,53255.88
2667,20976,53275.86
2668,20972,53295.83
2669,20916,53315.81
2670,20816,53335.78
2671,20704,53355.76
2672,20620,53375.74
2673,20568,53395.71
2674,20556,53415.69
2675,20564,53435.66
2676,20584,53455.64
2677,20608,53475.62
2678,20644,53495.59
2679,20680,53515.57
2680,20708,53535.54
2681,20720,53555.52
2682,20724,53575.50
2683,20724,53595.47
2684,20720,53615.45
2685,20716,53635.42
2686,20716,53655.40
2687,20724,53675.37
2688,20736,53695.35
2689,20752,53715.33
2690,20776,53735.30
2691,20796,53755.28
2692,20812,53775.25
2693,20836,53795.23
2694,20860,53815.21
2695,20884,53835.18
2696,20896,53855.16
2697,20916,53875.13
2698,20932,53895.11
2699,20956,53915.09
2700,20968,53935.06
2701,20988,53955.04
2702,21000,53975.01
2703,21016,53994.99
2704,20984,54014.97
2705,20896,54034.94
2706,20784,54054.92
2707,20676,54074.89
2708,20600,54094.87
2709,20560,54114.85
2710,20556,54134.82
2711,20564,54154.80
2712,20588,54174.77
2713,20624,54194.75
2714,20656,54214.73
2715,20688,54234.70
2716,20708,54254.68
2717,20720,54274.65
2718,20724,54294.63
2719,20728,54314.61
2720,20728,54334.58
2721,20728,54354.56
2722,20736,54374.53
2723,20748,54394.51
2724,20764,54414.48
2725,20784,54434.46
2726,20804,54454.44
2727,20828,54474.41
2728,20848,54494.39
2729,20868,54514.36
2730,20888,54534.34
2731,20908,54554.32
2732,20928,54574.29
2733,20948,54594.27
2734,20964,54614.24
2735,20984,54634.22
2736,21000,54654.20
2737,21020,54674.17
2738,21032,54694.15
2739,21028,54714.12
2740,20980,54734.10
2741,20892,54754.08
2742,20788,54774.05
2743,20688,54794.03
2744,20624,54814.00
2745,20600,54833.98
2746,20600,54853.96
2747,20612,54873.93
2748,20644,54893.91
2749,20680,54913.88
2750,20716,54933.86
2751,20744,54953.84
2752,20764,54973.81
2753,20776,54993.79
2754,20780,55013.76
2755,20776,55033.74
2756,20768,55053.72
2757,20768,55073.69
2758,20772,55093.67
2759,20788,55113.64
2760,20804,55133.62
2761,20820,55153.60
2762,20840,55173.57
2763,20864,55193.55
2764,20888,55213.52
2765,20904,55233.50
2766,20928,55253.47
2767,20948,55273.45
2768,20968,55293.43
2769,20988,55313.40
2770,21004,55333.38
2771,21016,55353.35
2772,21028,55373.33
2773,21024,55393.31
2774,20976,55413.28
2775,20892,55433.26
2776,20788,55453.23
2777,20704,55473.21
2778,20652,55493.19
2779,20632,55513.16
2780,20632,55533.14
2781,20652,55553.11
2782,20680,55573.09
2783,20720,55593.07
2784,20756,55613.04
2785,20788,55633.02
2786,20808,55652.99
2787,20812,55672.97
2788,20804,55692.95
2789,20792,55712.92
2790,20788,55732.90
2791,20784,55752.87
2792,20792,55772.85
2793,20804,55792.83
2794,20824,55812.80
2795,20844,55832.78
2796,20868,55852.75
2797,20888,55872.73
2798,20908,55892.71
2799,20936,55912.68
2800,20952,55932.66
2801,20976,55952.63
2802,20996,55972.61
2803,21016,55992.58
2804,21036,56012.56
2805,21048,56032.54
2806,21020,56052.51
2807,20948,56072.49
2808,20840,56092.46
2809,20736,56112.44
2810,20664,56132.42
2811,20616,56152.39
2812,20608,56172.37
2813,20616,56192.34
2814,20640,56212.32
2815,20672,56232.30
2816,20704,56252.27
2817,20740,56272.25
2818,20764,56292.22
2819,20776,56312.20
2820,20772,56332.18
2821,20768,56352.15
2822,20764,56372.13
2823,20756,56392.10
2824,20760,56412.08
2825,20772,56432.06
2826,20784,56452.03
2827,20804,56472.01
2828,20832,56491.98
2829,20848,56511.96
2830,20864,56531.94
2831,20888,56551.91
2832,20916,56571.89
2833,20936,56591.86
2834,20952,56611.84
2835,20972,56631.82
2836,20992,56651.79
2837,21012,56671.77
2838,21000,56691.74
2839,20932,56711.72
2840,20828,56731.70
2841,20716,56751.67
2842,20636,56771.65
2843,20592,56791.62
2844,20576,56811.60
2845,20584,56831.57
2846,20604,56851.55
2847,20632,56871.53
2848,20668,56891.50
2849,20708,56911.48
2850,20732,56931.45
2851,20744,56951.43
2852,20752,56971.41
2853,20748,56991.38
2854,20744,57011.36
2855,20736,57031.33
2856,20736,57051.31
2857,20744,57071.29
2858,20756,57091.26
2859,20772,57111.24
2860,20792,57131.21
2861,20812,57151.19
2862,20828,57171.17
2863,20848,57191.14
2864,20872,57211.12
2865,20892,57231.09
2866,20912,57251.07
2867,20928,57271.05
2868,20952,57291.02
2869,20968,57311.00
2870,20952,57330.97
2871,20888,57350.95
2872,20788,57370.93
2873,20688,57390.90
2874,20608,57410.88
2875,20568,57430.85
2876,20560,57450.83
2877,20564,57470.81
2878,20588,57490.78
2879,20620,57510.76
2880,20660,57530.73
2881,20692,57550.71
2882,20712,57570.68
2883,20728,57590.66
2884,20728,57610.64
2885,20724,57630.61
2886,20716,57650.59
2887,20712,57670.56
2888,20716,57690.54
2889,20728,57710.52
2890,20740,57730.49
2891,20760,57750.47
2892,20780,57770.44
2893,20796,57790.42
2894,20820,57810.40
2895,20836,57830.37
2896,20852,57850.35
2897,20868,57870.32
2898,20884,57890.30
2899,20900,57910.28
2900,20908,57930.25
2901,20888,57950.23
2902,20820,57970.20
2903,20728,57990.18
2904,20636,58010.16
2905,20572,58030.13
2906,20540,58050.11
2907,20532,58070.08
2908,20548,58090.06
2909,20572,58110.04
2910,20600,58130.01
2911,20640,58149.99
2912,20668,58169.96
2913,20692,58189.94
2914,20696,58209.92
2915,20696,58229.89
2916,20688,58249.87
2917,20680,58269.84
2918,20668,58289.82
2919,20672,58309.80
2920,20684,58329.77
2921,20696,58349.75
2922,20716,58369.72
2923,20740,58389.70
2924,20760,58409.67
2925,20780,58429.65
2926,20800,58449.63
2927,20820,58469.60
2928,20840,58489.58
2929,20856,58509.55
2930,20876,58529.53
2931,20888,58549.51
2932,20872,58569.48
2933,20804,58589.46
2934,20696,58609.43
2935,20600,58629.41
2936,20524,58649.39
2937,20488,58669.36
2938,20480,58689.34
2939,20492,58709.31
2940,20508,58729.29
2941,20540,58749.27
2942,20572,58769.24
2943,20600,58789.22
2944,20616,58809.19
2945,20628,58829.17
2946,20628,58849.15
2947,20628,58869.12
2948,20620,58889.10
2949,20616,58909.07
2950,20616,58929.05
2951,20624,58949.03
2952,20640,58969.00
2953,20652,58988.98
2954,20672,59008.95
2955,20696,59028.93
2956,20716,59048.91
2957,20736,59068.88
2958,20748,59088.86
2959,20768,59108.83
2960,20784,59128.81
2961,20804,59148.78
2962,20824,59168.76
2963,20840,59188.74
2964,20832,59208.71
2965,20788,59228.69
2966,20692,59248.66
2967,20588,59268.64
2968,20504,59288.62
2969,20452,59308.59
2970,20432,59328.57
2971,20436,59348.54
2972,20452,59368.52
2973,20480,59388.50
2974,20516,59408.47
2975,20544,59428.45
2976,20572,59448.42
2977,20588,59468.40
2978,20596,59488.38
2979,20596,59508.35
2980,20596,59528.33
2981,20596,59548.30
2982,20592,59568.28
2983,20596,59588.26
2984,20604,59608.23
2985,20620,59628.21
2986,20640,59648.18
2987,20660,59668.16
2988,20680,59688.14
2989,20700,59708.11
2990,20720,59728.09
2991,20736,59748.06
2992,20752,59768.04
2993,20764,59788.02
2994,20780,59807.99
2995,20792,59827.97
2996,20808,59847.94
2997,20816,59867.92
2998,20788,59887.89
2999,20712,59907.87
