Sample_Index,IR_Value,Timestamp_ms
0,17792,0.00
1,18928,10.00
2,18308,20.00
3,19860,30.00
4,21072,40.00
5,22108,50.00
6,22276,60.00
7,22644,70.00
8,23024,80.00
9,23356,90.00
10,23616,100.00
11,23808,110.00
12,23892,120.00
13,23944,130.00
14,23980,140.00
15,24032,150.00
16,24084,160.00
17,24132,170.00
18,24100,180.00
19,23992,190.00
20,23896,200.00
21,23908,210.00
22,23980,220.00
23,24004,230.00
24,24000,240.00
25,24004,250.00
26,24000,260.00
27,23996,270.00
28,23996,280.00
29,24008,290.00
30,24036,300.00
31,24056,310.00
32,24068,320.00
33,24072,330.00
34,24088,340.00
35,24108,350.00
36,24136,360.00
37,24164,370.00
38,24200,380.00
39,24236,390.00
40,24272,400.00
41,24316,410.00
42,24352,420.00
43,24332,430.00
44,24148,440.00
45,23896,450.00
46,23716,460.00
47,23616,470.00
48,23548,480.00
49,23500,490.00
50,23476,500.00
51,23436,510.00
52,23400,520.00
53,23368,530.00
54,23396,540.00
55,23436,550.00
56,23480,560.00
57,23544,570.00
58,23596,580.00
59,23636,590.00
60,23684,600.00
61,23736,610.00
62,23780,620.00
63,23824,630.00
64,23860,640.00
65,23900,650.00
66,23948,660.00
67,23944,670.00
68,23784,680.00
69,23572,690.00
70,23440,700.00
71,23384,710.00
72,23364,720.00
73,23376,730.00
74,23416,740.00
75,23456,750.00
76,23472,760.00
77,23488,770.00
78,23520,780.00
79,23564,790.00
80,23616,800.00
81,23660,810.00
82,23712,820.00
83,23752,830.00
84,23784,840.00
85,23816,850.00
86,23852,860.00
87,23888,870.00
88,23908,880.00
89,23808,890.00
90,23624,900.00
91,23488,910.00
92,23432,920.00
93,23416,930.00
94,23412,940.00
95,23440,950.00
96,23456,960.00
97,23452,970.00
98,23444,980.00
99,23452,990.00
100,23480,1000.00
101,23524,1010.00
102,23580,1020.00
103,23632,1030.00
104,23676,1040.00
105,23732,1050.00
106,23792,1060.00
107,23800,1070.00
108,23676,1080.00
109,23504,1090.00
110,23404,1100.00
111,23360,1110.00
112,23348,1120.00
113,23356,1130.00
114,23396,1140.00
115,23420,1150.00
116,23424,1160.00
117,23420,1170.00
118,23432,1180.00
119,23468,1190.00
120,23512,1200.00
121,23556,1210.00
122,23600,1220.00
123,23644,1230.00
124,23680,1240.00
125,23716,1250.00
126,23720,1260.00
127,23584,1270.00
128,23384,1280.00
129,23252,1290.00
130,23204,1300.00
131,23196,1310.00
132,23212,1320.00
133,23264,1330.00
134,23304,1340.00
135,23308,1350.00
136,23316,1360.00
137,23348,1370.00
138,23388,1380.00
139,23428,1390.00
140,23472,1400.00
141,23520,1410.00
142,23556,1420.00
143,23596,1430.00
144,23640,1440.00
145,23676,1450.00
146,23608,1460.00
147,23424,1470.00
148,23264,1480.00
149,23184,1490.00
150,23164,1500.00
151,23176,1510.00
152,23220,1520.00
153,23272,1530.00
154,23300,1540.00
155,23320,1550.00
156,23348,1560.00
157,23400,1570.00
158,23460,1580.00
159,23516,1590.00
160,23572,1600.00
161,23620,1610.00
162,23668,1620.00
163,23708,1630.00
164,23752,1640.00
165,23780,1650.00
166,23688,1660.00
167,23476,1670.00
168,23304,1680.00
169,23240,1690.00
170,23216,1700.00
171,23208,1710.00
172,23240,1720.00
173,23276,1730.00
174,23288,1740.00
175,23304,1750.00
176,23336,1760.00
177,23392,1770.00
178,23456,1780.00
179,23520,1790.00
180,23564,1800.00
181,23608,1810.00
182,23640,1820.00
183,23680,1830.00
184,23720,1840.00
185,23756,1850.00
186,23800,1860.00
187,23844,1870.00
188,23876,1880.00
189,23912,1890.00
190,23964,1900.00
191,24000,1910.00
192,24036,1920.00
193,24076,1930.00
194,24108,1940.00
195,24120,1950.00
196,23984,1960.00
197,23700,1970.00
198,23448,1980.00
199,23312,1990.00
200,23256,2000.00
201,23220,2010.00
202,23220,2020.00
203,23240,2030.00
204,23252,2040.00
205,23252,2050.00
206,23264,2060.00
207,23300,2070.00
208,23352,2080.00
209,23408,2090.00
210,23456,2100.00
211,23504,2110.00
212,23548,2120.00
213,23588,2130.00
214,23632,2140.00
215,23684,2150.00
216,23740,2160.00
217,23792,2170.00
218,23848,2180.00
219,23896,2190.00
220,23940,2200.00
221,23984,2210.00
222,24028,2220.00
223,24048,2230.00
224,23908,2240.00
225,23632,2250.00
226,23384,2260.00
227,23260,2270.00
228,23224,2280.00
229,23220,2290.00
230,23248,2300.00
231,23288,2310.00
232,23308,2320.00
233,23316,2330.00
234,23320,2340.00
235,23348,2350.00
236,23404,2360.00
237,23460,2370.00
238,23512,2380.00
239,23556,2390.00
240,23600,2400.00
241,23644,2410.00
242,23680,2420.00
243,23724,2430.00
244,23772,2440.00
245,23816,2450.00
246,23864,2460.00
247,23908,2470.00
248,23956,2480.00
249,23996,2490.00
250,24016,2500.00
251,23880,2510.00
252,23596,2520.00
253,23332,2530.00
254,23208,2540.00
255,23180,2550.00
256,23180,2560.00
257,23212,2570.00
258,23248,2580.00
259,23260,2590.00
260,23260,2600.00
261,23264,2610.00
262,23292,2620.00
263,23336,2630.00
264,23380,2640.00
265,23420,2650.00
266,23460,2660.00
267,23496,2670.00
268,23524,2680.00
269,23556,2690.00
270,23592,2700.00
271,23628,2710.00
272,23668,2720.00
273,23712,2730.00
274,23756,2740.00
275,23804,2750.00
276,23780,2760.00
277,23576,2770.00
278,23296,2780.00
279,23100,2790.00
280,23044,2800.00
281,23044,2810.00
282,23068,2820.00
283,23104,2830.00
284,23128,2840.00
285,23128,2850.00
286,23116,2860.00
287,23128,2870.00
288,23184,2880.00
289,23240,2890.00
290,23288,2900.00
291,23324,2910.00
292,23368,2920.00
293,23416,2930.00
294,23468,2940.00
295,23512,2950.00
296,23552,2960.00
297,23576,2970.00
298,23456,2980.00
299,23192,2990.00
300,22956,3000.00
301,22868,3010.00
302,22872,3020.00
303,22916,3030.00
304,22980,3040.00
305,23028,3050.00
306,23044,3060.00
307,23028,3070.00
308,23028,3080.00
309,23060,3090.00
310,23128,3100.00
311,23208,3110.00
312,23272,3120.00
313,23308,3130.00
314,23344,3140.00
315,23392,3150.00
316,23404,3160.00
317,23268,3170.00
318,23004,3180.00
319,22784,3190.00
320,22688,3200.00
321,22664,3210.00
322,22704,3220.00
323,22784,3230.00
324,22848,3240.00
325,22868,3250.00
326,22856,3260.00
327,22872,3270.00
328,22924,3280.00
329,22996,3290.00
330,23056,3300.00
331,23104,3310.00
332,23140,3320.00
333,23172,3330.00
334,23184,3340.00
335,23028,3350.00
336,22752,3360.00
337,22548,3370.00
338,22472,3380.00
339,22448,3390.00
340,22456,3400.00
341,22512,3410.00
342,22584,3420.00
343,22612,3430.00
344,22624,3440.00
345,22656,3450.00
346,22720,3460.00
347,22800,3470.00
348,22876,3480.00
349,22948,3490.00
350,23016,3500.00
351,23068,3510.00
352,23124,3520.00
353,23140,3530.00
354,22976,3540.00
355,22680,3550.00
356,22488,3560.00
357,22452,3570.00
358,22452,3580.00
359,22464,3590.00
360,22508,3600.00
361,22556,3610.00
362,22576,3620.00
363,22584,3630.00
364,22612,3640.00
365,22656,3650.00
366,22704,3660.00
367,22768,3670.00
368,22836,3680.00
369,22900,3690.00
370,22960,3700.00
371,23020,3710.00
372,23084,3720.00
373,23148,3730.00
374,23208,3740.00
375,23268,3750.00
376,23320,3760.00
377,23360,3770.00
378,23396,3780.00
379,23380,3790.00
380,23184,3800.00
381,22880,3810.00
382,22680,3820.00
383,22596,3830.00
384,22560,3840.00
385,22564,3850.00
386,22616,3860.00
387,22680,3870.00
388,22720,3880.00
389,22760,3890.00
390,22816,3900.00
391,22884,3910.00
392,22960,3920.00
393,23040,3930.00
394,23108,3940.00
395,23168,3950.00
396,23208,3960.00
397,23256,3970.00
398,23280,3980.00
399,23308,3990.00
400,23352,4000.00
401,23400,4010.00
402,23444,4020.00
403,23484,4030.00
404,23520,4040.00
405,23492,4050.00
406,23308,4060.00
407,23080,4070.00
408,22956,4080.00
409,22928,4090.00
410,22932,4100.00
411,22952,4110.00
412,22992,4120.00
413,23024,4130.00
414,23032,4140.00
415,23044,4150.00
416,23076,4160.00
417,23128,4170.00
418,23184,4180.00
419,23236,4190.00
420,23280,4200.00
421,23316,4210.00
422,23352,4220.00
423,23396,4230.00
424,23436,4240.00
425,23452,4250.00
426,23472,4260.00
427,23512,4270.00
428,23536,4280.00
429,23440,4290.00
430,23228,4300.00
431,23068,4310.00
432,23024,4320.00
433,23028,4330.00
434,23044,4340.00
435,23080,4350.00
436,23120,4360.00
437,23128,4370.00
438,23116,4380.00
439,23128,4390.00
440,23176,4400.00
441,23232,4410.00
442,23288,4420.00
443,23340,4430.00
444,23380,4440.00
445,23408,4450.00
446,23440,4460.00
447,23484,4470.00
448,23528,4480.00
449,23568,4490.00
450,23608,4500.00
451,23596,4510.00
452,23424,4520.00
453,23196,4530.00
454,23072,4540.00
455,23040,4550.00
456,23048,4560.00
457,23076,4570.00
458,23120,4580.00
459,23144,4590.00
460,23148,4600.00
461,23164,4610.00
462,23196,4620.00
463,23256,4630.00
464,23312,4640.00
465,23360,4650.00
466,23412,4660.00
467,23440,4670.00
468,23464,4680.00
469,23500,4690.00
470,23544,4700.00
471,23568,4710.00
472,23596,4720.00
473,23624,4730.00
474,23580,4740.00
475,23376,4750.00
476,23160,4760.00
477,23052,4770.00
478,23032,4780.00
479,23028,4790.00
480,23044,4800.00
481,23060,4810.00
482,23052,4820.00
483,23036,4830.00
484,23040,4840.00
485,23072,4850.00
486,23124,4860.00
487,23180,4870.00
488,23236,4880.00
489,23288,4890.00
490,23332,4900.00
491,23380,4910.00
492,23420,4920.00
493,23464,4930.00
494,23508,4940.00
495,23552,4950.00
496,23580,4960.00
497,23456,4970.00
498,23240,4980.00
499,23080,4990.00
500,23032,5000.00
501,23036,5010.00
502,23048,5020.00
503,23080,5030.00
504,23104,5040.00
505,23116,5050.00
506,23132,5060.00
507,23168,5070.00
508,23208,5080.00
509,23256,5090.00
510,23308,5100.00
511,23352,5110.00
512,23392,5120.00
513,23412,5130.00
514,23432,5140.00
515,23456,5150.00
516,23480,5160.00
517,23504,5170.00
518,23536,5180.00
519,23548,5190.00
520,23432,5200.00
521,23208,5210.00
522,23048,5220.00
523,23008,5230.00
524,23020,5240.00
525,23044,5250.00
526,23080,5260.00
527,23100,5270.00
528,23100,5280.00
529,23092,5290.00
530,23100,5300.00
531,23132,5310.00
532,23172,5320.00
533,23212,5330.00
534,23248,5340.00
535,23288,5350.00
536,23320,5360.00
537,23352,5370.00
538,23384,5380.00
539,23424,5390.00
540,23460,5400.00
541,23480,5410.00
542,23360,5420.00
543,23140,5430.00
544,22976,5440.00
545,22924,5450.00
546,22944,5460.00
547,22976,5470.00
548,23012,5480.00
549,23040,5490.00
550,23048,5500.00
551,23064,5510.00
552,23100,5520.00
553,23160,5530.00
554,23216,5540.00
555,23264,5550.00
556,23320,5560.00
557,23372,5570.00
558,23416,5580.00
559,23444,5590.00
560,23468,5600.00
561,23496,5610.00
562,23476,5620.00
563,23288,5630.00
564,23032,5640.00
565,22880,5650.00
566,22856,5660.00
567,22884,5670.00
568,22932,5680.00
569,22984,5690.00
570,23008,5700.00
571,23012,5710.00
572,23032,5720.00
573,23072,5730.00
574,23124,5740.00
575,23176,5750.00
576,23228,5760.00
577,23280,5770.00
578,23316,5780.00
579,23348,5790.00
580,23380,5800.00
581,23424,5810.00
582,23432,5820.00
583,23284,5830.00
584,23016,5840.00
585,22828,5850.00
586,22792,5860.00
587,22812,5870.00
588,22852,5880.00
589,22904,5890.00
590,22940,5900.00
591,22952,5910.00
592,22960,5920.00
593,22980,5930.00
594,23024,5940.00
595,23076,5950.00
596,23132,5960.00
597,23188,5970.00
598,23232,5980.00
599,23280,5990.00
600,23328,6000.00
601,23372,6010.00
602,23372,6020.00
603,23180,6030.00
604,22892,6040.00
605,22716,6050.00
606,22696,6060.00
607,22728,6070.00
608,22772,6080.00
609,22824,6090.00
610,22864,6100.00
611,22872,6110.00
612,22880,6120.00
613,22912,6130.00
614,22964,6140.00
615,23036,6150.00
616,23096,6160.00
617,23156,6170.00
618,23204,6180.00
619,23236,6190.00
620,23264,6200.00
621,23280,6210.00
622,23128,6220.00
623,22844,6230.00
624,22640,6240.00
625,22592,6250.00
626,22624,6260.00
627,22684,6270.00
628,22752,6280.00
629,22800,6290.00
630,22816,6300.00
631,22824,6310.00
632,22860,6320.00
633,22920,6330.00
634,22984,6340.00
635,23044,6350.00
636,23096,6360.00
637,23140,6370.00
638,23184,6380.00
639,23212,6390.00
640,23124,6400.00
641,22864,6410.00
642,22628,6420.00
643,22552,6430.00
644,22576,6440.00
645,22624,6450.00
646,22692,6460.00
647,22752,6470.00
648,22772,6480.00
649,22784,6490.00
650,22804,6500.00
651,22848,6510.00
652,22916,6520.00
653,22988,6530.00
654,23040,6540.00
655,23096,6550.00
656,23140,6560.00
657,23184,6570.00
658,23212,6580.00
659,23088,6590.00
660,22812,6600.00
661,22596,6610.00
662,22540,6620.00
663,22556,6630.00
664,22596,6640.00
665,22648,6650.00
666,22700,6660.00
667,22724,6670.00
668,22732,6680.00
669,22760,6690.00
670,22816,6700.00
671,22884,6710.00
672,22952,6720.00
673,23016,6730.00
674,23072,6740.00
675,23124,6750.00
676,23164,6760.00
677,23212,6770.00
678,23216,6780.00
679,23028,6790.00
680,22744,6800.00
681,22572,6810.00
682,22540,6820.00
683,22556,6830.00
684,22584,6840.00
685,22632,6850.00
686,22668,6860.00
687,22676,6870.00
688,22680,6880.00
689,22720,6890.00
690,22784,6900.00
691,22848,6910.00
692,22916,6920.00
693,22980,6930.00
694,23028,6940.00
695,23064,6950.00
696,23096,6960.00
697,23136,6970.00
698,23172,6980.00
699,23212,6990.00
700,23252,7000.00
701,23164,7010.00
702,22872,7020.00
703,22592,7030.00
704,22488,7040.00
705,22496,7050.00
706,22520,7060.00
707,22568,7070.00
708,22620,7080.00
709,22640,7090.00
710,22640,7100.00
711,22652,7110.00
712,22696,7120.00
713,22760,7130.00
714,22820,7140.00
715,22880,7150.00
716,22936,7160.00
717,22984,7170.00
718,23032,7180.00
719,23072,7190.00
720,23116,7200.00
721,23156,7210.00
722,23200,7220.00
723,23244,7230.00
724,23280,7240.00
725,23180,7250.00
726,22860,7260.00
727,22576,7270.00
728,22464,7280.00
729,22468,7290.00
730,22500,7300.00
731,22556,7310.00
732,22600,7320.00
733,22604,7330.00
734,22592,7340.00
735,22612,7350.00
736,22664,7360.00
737,22728,7370.00
738,22796,7380.00
739,22860,7390.00
740,22908,7400.00
741,22944,7410.00
742,22984,7420.00
743,23024,7430.00
744,23060,7440.00
745,23104,7450.00
746,23116,7460.00
747,22932,7470.00
748,22616,7480.00
749,22408,7490.00
750,22376,7500.00
751,22420,7510.00
752,22476,7520.00
753,22540,7530.00
754,22572,7540.00
755,22564,7550.00
756,22556,7560.00
757,22588,7570.00
758,22648,7580.00
759,22716,7590.00
760,22784,7600.00
761,22848,7610.00
762,22908,7620.00
763,22956,7630.00
764,23000,7640.00
765,23044,7650.00
766,23084,7660.00
767,23124,7670.00
768,23168,7680.00
769,23052,7690.00
770,22728,7700.00
771,22400,7710.00
772,22240,7720.00
773,22204,7730.00
774,22208,7740.00
775,22248,7750.00
776,22292,7760.00
777,22288,7770.00
778,22268,7780.00
779,22272,7790.00
780,22312,7800.00
781,22376,7810.00
782,22444,7820.00
783,22516,7830.00
784,22588,7840.00
785,22656,7850.00
786,22716,7860.00
787,22772,7870.00
788,22840,7880.00
789,22916,7890.00
790,22872,7900.00
791,22596,7910.00
792,22284,7920.00
793,22168,7930.00
794,22200,7940.00
795,22260,7950.00
796,22328,7960.00
797,22384,7970.00
798,22392,7980.00
799,22384,7990.00
800,22404,8000.00
801,22452,8010.00
802,22524,8020.00
803,22592,8030.00
804,22656,8040.00
805,22716,8050.00
806,22768,8060.00
807,22816,8070.00
808,22864,8080.00
809,22864,8090.00
810,22640,8100.00
811,22316,8110.00
812,22148,8120.00
813,22168,8130.00
814,22232,8140.00
815,22304,8150.00
816,22368,8160.00
817,22388,8170.00
818,22384,8180.00
819,22400,8190.00
820,22452,8200.00
821,22524,8210.00
822,22596,8220.00
823,22660,8230.00
824,22712,8240.00
825,22760,8250.00
826,22808,8260.00
827,22840,8270.00
828,22724,8280.00
829,22412,8290.00
830,22148,8300.00
831,22100,8310.00
832,22152,8320.00
833,22208,8330.00
834,22272,8340.00
835,22300,8350.00
836,22280,8360.00
837,22260,8370.00
838,22272,8380.00
839,22324,8390.00
840,22396,8400.00
841,22460,8410.00
842,22516,8420.00
843,22564,8430.00
844,22608,8440.00
845,22644,8450.00
846,22676,8460.00
847,22652,8470.00
848,22388,8480.00
849,22032,8490.00
850,21860,8500.00
851,21852,8510.00
852,21892,8520.00
853,21948,8530.00
854,22016,8540.00
855,22048,8550.00
856,22052,8560.00
857,22060,8570.00
858,22100,8580.00
859,22164,8590.00
860,22224,8600.00
861,22276,8610.00
862,22324,8620.00
863,22376,8630.00
864,22432,8640.00
865,22488,8650.00
866,22544,8660.00
867,22596,8670.00
868,22640,8680.00
869,22600,8690.00
870,22288,8700.00
871,21908,8710.00
872,21772,8720.00
873,21788,8730.00
874,21816,8740.00
875,21860,8750.00
876,21924,8760.00
877,21948,8770.00
878,21952,8780.00
879,21980,8790.00
880,22056,8800.00
881,22148,8810.00
882,22244,8820.00
883,22320,8830.00
884,22384,8840.00
885,22436,8850.00
886,22492,8860.00
887,22556,8870.00
888,22604,8880.00
889,22660,8890.00
890,22720,8900.00
891,22732,8910.00
892,22500,8920.00
893,22108,8930.00
894,21872,8940.00
895,21844,8950.00
896,21884,8960.00
897,21956,8970.00
898,22036,8980.00
899,22080,8990.00
900,22100,9000.00
901,22136,9010.00
902,22200,9020.00
903,22272,9030.00
904,22348,9040.00
905,22428,9050.00
906,22492,9060.00
907,22552,9070.00
908,22608,9080.00
909,22660,9090.00
910,22708,9100.00
911,22756,9110.00
912,22808,9120.00
913,22852,9130.00
914,22892,9140.00
915,22936,9150.00
916,22868,9160.00
917,22532,9170.00
918,22164,9180.00
919,22032,9190.00
920,22076,9200.00
921,22136,9210.00
922,22192,9220.00
923,22260,9230.00
924,22304,9240.00
925,22324,9250.00
926,22352,9260.00
927,22412,9270.00
928,22500,9280.00
929,22588,9290.00
930,22664,9300.00
931,22732,9310.00
932,22784,9320.00
933,22828,9330.00
934,22856,9340.00
935,22884,9350.00
936,22916,9360.00
937,22948,9370.00
938,22988,9380.00
939,23032,9390.00
940,23092,9400.00
941,23152,9410.00
942,23164,9420.00
943,22944,9430.00
944,22564,9440.00
945,22332,9450.00
946,22320,9460.00
947,22364,9470.00
948,22400,9480.00
949,22440,9490.00
950,22472,9500.00
951,22456,9510.00
952,22432,9520.00
953,22444,9530.00
954,22492,9540.00
955,22556,9550.00
956,22608,9560.00
957,22664,9570.00
958,22716,9580.00
959,22764,9590.00
960,22812,9600.00
961,22868,9610.00
962,22932,9620.00
963,22996,9630.00
964,23056,9640.00
965,23128,9650.00
966,23192,9660.00
967,23092,9670.00
968,22764,9680.00
969,22460,9690.00
970,22372,9700.00
971,22396,9710.00
972,22432,9720.00
973,22476,9730.00
974,22500,9740.00
975,22484,9750.00
976,22452,9760.00
977,22468,9770.00
978,22516,9780.00
979,22584,9790.00
980,22648,9800.00
981,22700,9810.00
982,22748,9820.00
983,22780,9830.00
984,22816,9840.00
985,22860,9850.00
986,22908,9860.00
987,22976,9870.00
988,23048,9880.00
989,23108,9890.00
990,23148,9900.00
991,23052,9910.00
992,22720,9920.00
993,22372,9930.00
994,22248,9940.00
995,22264,9950.00
996,22312,9960.00
997,22380,9970.00
998,22464,9980.00
999,22512,9990.00
1000,22524,10000.00
1001,22532,10010.00
1002,22576,10020.00
1003,22648,10030.00
1004,22732,10040.00
1005,22808,10050.00
1006,22872,10060.00
1007,22928,10070.00
1008,22980,10080.00
1009,23012,10090.00
1010,23032,10100.00
1011,23068,10110.00
1012,23112,10120.00
1013,23164,10130.00
1014,23096,10140.00
1015,22780,10150.00
1016,22408,10160.00
1017,22236,10170.00
1018,22252,10180.00
1019,22324,10190.00
1020,22408,10200.00
1021,22484,10210.00
1022,22524,10220.00
1023,22536,10230.00
1024,22552,10240.00
1025,22600,10250.00
1026,22684,10260.00
1027,22772,10270.00
1028,22852,10280.00
1029,22924,10290.00
1030,22980,10300.00
1031,23032,10310.00
1032,23076,10320.00
1033,23124,10330.00
1034,23172,10340.00
1035,23220,10350.00
1036,23108,10360.00
1037,22764,10370.00
1038,22444,10380.00
1039,22336,10390.00
1040,22372,10400.00
1041,22444,10410.00
1042,22520,10420.00
1043,22564,10430.00
1044,22548,10440.00
1045,22524,10450.00
1046,22536,10460.00
1047,22592,10470.00
1048,22668,10480.00
1049,22744,10490.00
1050,22804,10500.00
1051,22840,10510.00
1052,22864,10520.00
1053,22888,10530.00
1054,22916,10540.00
1055,22956,10550.00
1056,22896,10560.00
1057,22600,10570.00
1058,22300,10580.00
1059,22220,10590.00
1060,22288,10600.00
1061,22376,10610.00
1062,22444,10620.00
1063,22500,10630.00
1064,22512,10640.00
1065,22500,10650.00
1066,22508,10660.00
1067,22552,10670.00
1068,22632,10680.00
1069,22704,10690.00
1070,22772,10700.00
1071,22836,10710.00
1072,22884,10720.00
1073,22924,10730.00
1074,22960,10740.00
1075,23004,10750.00
1076,23008,10760.00
1077,22784,10770.00
1078,22392,10780.00
1079,22160,10790.00
1080,22152,10800.00
1081,22212,10810.00
1082,22268,10820.00
1083,22332,10830.00
1084,22364,10840.00
1085,22360,10850.00
1086,22352,10860.00
1087,22380,10870.00
1088,22432,10880.00
1089,22488,10890.00
1090,22540,10900.00
1091,22588,10910.00
1092,22620,10920.00
1093,22632,10930.00
1094,22640,10940.00
1095,22664,10950.00
1096,22696,10960.00
1097,22748,10970.00
1098,22680,10980.00
1099,22344,10990.00
1100,22004,11000.00
1101,21900,11010.00
1102,21960,11020.00
1103,22028,11030.00
1104,22104,11040.00
1105,22164,11050.00
1106,22180,11060.00
1107,22180,11070.00
1108,22192,11080.00
1109,22248,11090.00
1110,22324,11100.00
1111,22396,11110.00
1112,22460,11120.00
1113,22508,11130.00
1114,22552,11140.00
1115,22592,11150.00
1116,22624,11160.00
1117,22664,11170.00
1118,22712,11180.00
1119,22760,11190.00
1120,22708,11200.00
1121,22388,11210.00
1122,22016,11220.00
1123,21880,11230.00
1124,21912,11240.00
1125,21980,11250.00
1126,22036,11260.00
1127,22096,11270.00
1128,22112,11280.00
1129,22100,11290.00
1130,22112,11300.00
1131,22160,11310.00
1132,22228,11320.00
1133,22300,11330.00
1134,22364,11340.00
1135,22424,11350.00
1136,22464,11360.00
1137,22496,11370.00
1138,22532,11380.00
1139,22568,11390.00
1140,22612,11400.00
1141,22628,11410.00
1142,22408,11420.00
1143,22040,11430.00
1144,21856,11440.00
1145,21876,11450.00
1146,21960,11460.00
1147,22036,11470.00
1148,22104,11480.00
1149,22116,11490.00
1150,22084,11500.00
1151,22068,11510.00
1152,22080,11520.00
1153,22124,11530.00
1154,22164,11540.00
1155,22212,11550.00
1156,22256,11560.00
1157,22304,11570.00
1158,22348,11580.00
1159,22392,11590.00
1160,22448,11600.00
1161,22504,11610.00
1162,22388,11620.00
1163,22060,11630.00
1164,21816,11640.00
1165,21788,11650.00
1166,21860,11660.00
1167,21932,11670.00
1168,22000,11680.00
1169,22036,11690.00
1170,22016,11700.00
1171,22000,11710.00
1172,22024,11720.00
1173,22088,11730.00
1174,22164,11740.00
1175,22236,11750.00
1176,22300,11760.00
1177,22352,11770.00
1178,22400,11780.00
1179,22440,11790.00
1180,22492,11800.00
1181,22548,11810.00
1182,22592,11820.00
1183,22464,11830.00
1184,22116,11840.00
1185,21840,11850.00
1186,21772,11860.00
1187,21832,11870.00
1188,21892,11880.00
1189,21964,11890.00
1190,22024,11900.00
1191,22036,11910.00
1192,22036,11920.00
1193,22068,11930.00
1194,22128,11940.00
1195,22196,11950.00
1196,22272,11960.00
1197,22320,11970.00
1198,22364,11980.00
1199,22396,11990.00
1200,22436,12000.00
1201,22468,12010.00
1202,22496,12020.00
1203,22544,12030.00
1204,22588,12040.00
1205,22468,12050.00
1206,22120,12060.00
1207,21812,12070.00
1208,21744,12080.00
1209,21788,12090.00
1210,21840,12100.00
1211,21908,12110.00
1212,21960,12120.00
1213,21972,12130.00
1214,21964,12140.00
1215,21980,12150.00
1216,22032,12160.00
1217,22092,12170.00
1218,22148,12180.00
1219,22200,12190.00
1220,22248,12200.00
1221,22288,12210.00
1222,22328,12220.00
1223,22372,12230.00
1224,22420,12240.00
1225,22472,12250.00
1226,22516,12260.00
1227,22564,12270.00
1228,22612,12280.00
1229,22516,12290.00
1230,22176,12300.00
1231,21852,12310.00
1232,21764,12320.00
1233,21820,12330.00
1234,21880,12340.00
1235,21948,12350.00
1236,21988,12360.00
1237,21988,12370.00
1238,21988,12380.00
1239,22016,12390.00
1240,22084,12400.00
1241,22160,12410.00
1242,22228,12420.00
1243,22296,12430.00
1244,22344,12440.00
1245,22388,12450.00
1246,22424,12460.00
1247,22456,12470.00
1248,22508,12480.00
1249,22552,12490.00
1250,22604,12500.00
1251,22660,12510.00
1252,22716,12520.00
1253,22620,12530.00
1254,22288,12540.00
1255,21976,12550.00
1256,21900,12560.00
1257,21948,12570.00
1258,22004,12580.00
1259,22072,12590.00
1260,22124,12600.00
1261,22136,12610.00
1262,22136,12620.00
1263,22164,12630.00
1264,22224,12640.00
1265,22292,12650.00
1266,22348,12660.00
1267,22404,12670.00
1268,22444,12680.00
1269,22480,12690.00
1270,22516,12700.00
1271,22556,12710.00
1272,22608,12720.00
1273,22652,12730.00
1274,22700,12740.00
1275,22744,12750.00
1276,22804,12760.00
1277,22796,12770.00
1278,22528,12780.00
1279,22136,12790.00
1280,21932,12800.00
1281,21932,12810.00
1282,21992,12820.00
1283,22044,12830.00
1284,22112,12840.00
1285,22152,12850.00
1286,22152,12860.00
1287,22176,12870.00
1288,22232,12880.00
1289,22300,12890.00
1290,22376,12900.00
1291,22440,12910.00
1292,22492,12920.00
1293,22540,12930.00
1294,22584,12940.00
1295,22640,12950.00
1296,22700,12960.00
1297,22760,12970.00
1298,22812,12980.00
1299,22860,12990.00
1300,22908,13000.00
1301,22912,13010.00
1302,22688,13020.00
1303,22296,13030.00
1304,22028,13040.00
1305,21976,13050.00
1306,22032,13060.00
1307,22108,13070.00
1308,22180,13080.00
1309,22204,13090.00
1310,22188,13100.00
1311,22180,13110.00
1312,22216,13120.00
1313,22276,13130.00
1314,22344,13140.00
1315,22416,13150.00
1316,22476,13160.00
1317,22520,13170.00
1318,22552,13180.00
1319,22580,13190.00
1320,22616,13200.00
1321,22664,13210.00
1322,22708,13220.00
1323,22572,13230.00
1324,22244,13240.00
1325,22004,13250.00
1326,21968,13260.00
1327,22036,13270.00
1328,22120,13280.00
1329,22216,13290.00
1330,22256,13300.00
1331,22252,13310.00
1332,22248,13320.00
1333,22272,13330.00
1334,22336,13340.00
1335,22416,13350.00
1336,22488,13360.00
1337,22556,13370.00
1338,22616,13380.00
1339,22660,13390.00
1340,22700,13400.00
1341,22740,13410.00
1342,22768,13420.00
1343,22616,13430.00
1344,22264,13440.00
1345,22016,13450.00
1346,21992,13460.00
1347,22052,13470.00
1348,22116,13480.00
1349,22184,13490.00
1350,22232,13500.00
1351,22232,13510.00
1352,22216,13520.00
1353,22232,13530.00
1354,22272,13540.00
1355,22328,13550.00
1356,22384,13560.00
1357,22436,13570.00
1358,22488,13580.00
1359,22528,13590.00
1360,22560,13600.00
1361,22596,13610.00
1362,22636,13620.00
1363,22604,13630.00
1364,22312,13640.00
1365,21944,13650.00
1366,21804,13660.00
1367,21844,13670.00
1368,21904,13680.00
1369,21952,13690.00
1370,22012,13700.00
1371,22044,13710.00
1372,22040,13720.00
1373,22044,13730.00
1374,22108,13740.00
1375,22184,13750.00
1376,22252,13760.00
1377,22304,13770.00
1378,22348,13780.00
1379,22384,13790.00
1380,22432,13800.00
1381,22480,13810.00
1382,22528,13820.00
1383,22588,13830.00
1384,22628,13840.00
1385,22464,13850.00
1386,22104,13860.00
1387,21880,13870.00
1388,21864,13880.00
1389,21932,13890.00
1390,21992,13900.00
1391,22056,13910.00
1392,22104,13920.00
1393,22116,13930.00
1394,22116,13940.00
1395,22144,13950.00
1396,22208,13960.00
1397,22292,13970.00
1398,22368,13980.00
1399,22440,13990.00
1400,22496,14000.00
1401,22536,14010.00
1402,22580,14020.00
1403,22612,14030.00
1404,22644,14040.00
1405,22680,14050.00
1406,22684,14060.00
1407,22440,14070.00
1408,22072,14080.00
1409,21908,14090.00
1410,21936,14100.00
1411,22012,14110.00
1412,22080,14120.00
1413,22148,14130.00
1414,22192,14140.00
1415,22192,14150.00
1416,22200,14160.00
1417,22244,14170.00
1418,22316,14180.00
1419,22392,14190.00
1420,22452,14200.00
1421,22492,14210.00
1422,22528,14220.00
1423,22564,14230.00
1424,22592,14240.00
1425,22620,14250.00
1426,22672,14260.00
1427,22668,14270.00
1428,22420,14280.00
1429,22056,14290.00
1430,21900,14300.00
1431,21940,14310.00
1432,22000,14320.00
1433,22068,14330.00
1434,22140,14340.00
1435,22172,14350.00
1436,22160,14360.00
1437,22164,14370.00
1438,22192,14380.00
1439,22256,14390.00
1440,22328,14400.00
1441,22388,14410.00
1442,22444,14420.00
1443,22488,14430.00
1444,22512,14440.00
1445,22548,14450.00
1446,22592,14460.00
1447,22636,14470.00
1448,22680,14480.00
1449,22732,14490.00
1450,22780,14500.00
1451,22772,14510.00
1452,22492,14520.00
1453,22048,14530.00
1454,21812,14540.00
1455,21812,14550.00
1456,21860,14560.00
1457,21904,14570.00
1458,21968,14580.00
1459,22012,14590.00
1460,22008,14600.00
1461,22004,14610.00
1462,22044,14620.00
1463,22108,14630.00
1464,22192,14640.00
1465,22276,14650.00
1466,22352,14660.00
1467,22416,14670.00
1468,22460,14680.00
1469,22504,14690.00
1470,22552,14700.00
1471,22604,14710.00
1472,22652,14720.00
1473,22712,14730.00
1474,22764,14740.00
1475,22820,14750.00
1476,22772,14760.00
1477,22440,14770.00
1478,22056,14780.00
1479,21912,14790.00
1480,21948,14800.00
1481,22012,14810.00
1482,22060,14820.00
1483,22096,14830.00
1484,22096,14840.00
1485,22080,14850.00
1486,22076,14860.00
1487,22112,14870.00
1488,22180,14880.00
1489,22260,14890.00
1490,22332,14900.00
1491,22396,14910.00
1492,22444,14920.00
1493,22496,14930.00
1494,22544,14940.00
1495,22588,14950.00
1496,22636,14960.00
1497,22684,14970.00
1498,22736,14980.00
1499,22784,14990.00
1500,22820,15000.00
1501,22644,15010.00
1502,22232,15020.00
1503,21936,15030.00
1504,21896,15040.00
1505,21972,15050.00
1506,22052,15060.00
1507,22128,15070.00
1508,22164,15080.00
1509,22152,15090.00
1510,22136,15100.00
1511,22152,15110.00
1512,22212,15120.00
1513,22288,15130.00
1514,22360,15140.00
1515,22416,15150.00
1516,22464,15160.00
1517,22508,15170.00
1518,22540,15180.00
1519,22580,15190.00
1520,22628,15200.00
1521,22680,15210.00
1522,22736,15220.00
1523,22712,15230.00
1524,22412,15240.00
1525,22028,15250.00
1526,21872,15260.00
1527,21912,15270.00
1528,22000,15280.00
1529,22080,15290.00
1530,22140,15300.00
1531,22148,15310.00
1532,22128,15320.00
1533,22124,15330.00
1534,22168,15340.00
1535,22248,15350.00
1536,22332,15360.00
1537,22404,15370.00
1538,22468,15380.00
1539,22520,15390.00
1540,22564,15400.00
1541,22596,15410.00
1542,22632,15420.00
1543,22672,15430.00
1544,22724,15440.00
1545,22660,15450.00
1546,22320,15460.00
1547,21936,15470.00
1548,21796,15480.00
1549,21840,15490.00
1550,21912,15500.00
1551,21972,15510.00
1552,22032,15520.00
1553,22044,15530.00
1554,22028,15540.00
1555,22028,15550.00
1556,22068,15560.00
1557,22132,15570.00
1558,22216,15580.00
1559,22280,15590.00
1560,22336,15600.00
1561,22376,15610.00
1562,22408,15620.00
1563,22444,15630.00
1564,22472,15640.00
1565,22516,15650.00
1566,22568,15660.00
1567,22520,15670.00
1568,22176,15680.00
1569,21796,15690.00
1570,21668,15700.00
1571,21716,15710.00
1572,21784,15720.00
1573,21844,15730.00
1574,21908,15740.00
1575,21924,15750.00
1576,21912,15760.00
1577,21912,15770.00
1578,21956,15780.00
1579,22020,15790.00
1580,22092,15800.00
1581,22160,15810.00
1582,22220,15820.00
1583,22264,15830.00
1584,22308,15840.00
1585,22344,15850.00
1586,22384,15860.00
1587,22428,15870.00
1588,22468,15880.00
1589,22516,15890.00
1590,22560,15900.00
1591,22404,15910.00
1592,21980,15920.00
1593,21652,15930.00
1594,21584,15940.00
1595,21656,15950.00
1596,21724,15960.00
1597,21796,15970.00
1598,21840,15980.00
1599,21852,15990.00
1600,21848,16000.00
1601,21868,16010.00
1602,21924,16020.00
1603,21996,16030.00
1604,22068,16040.00
1605,22132,16050.00
1606,22172,16060.00
1607,22204,16070.00
1608,22240,16080.00
1609,22272,16090.00
1610,22308,16100.00
1611,22352,16110.00
1612,22408,16120.00
1613,22364,16130.00
1614,22044,16140.00
1615,21696,16150.00
1616,21592,16160.00
1617,21660,16170.00
1618,21748,16180.00
1619,21832,16190.00
1620,21888,16200.00
1621,21888,16210.00
1622,21872,16220.00
1623,21884,16230.00
1624,21936,16240.00
1625,22008,16250.00
1626,22084,16260.00
1627,22148,16270.00
1628,22196,16280.00
1629,22236,16290.00
1630,22272,16300.00
1631,22312,16310.00
1632,22348,16320.00
1633,22392,16330.00
1634,22436,16340.00
1635,22484,16350.00
1636,22408,16360.00
1637,22032,16370.00
1638,21656,16380.00
1639,21552,16390.00
1640,21616,16400.00
1641,21684,16410.00
1642,21748,16420.00
1643,21804,16430.00
1644,21820,16440.00
1645,21812,16450.00
1646,21828,16460.00
1647,21880,16470.00
1648,21948,16480.00
1649,22020,16490.00
1650,22088,16500.00
1651,22144,16510.00
1652,22184,16520.00
1653,22212,16530.00
1654,22240,16540.00
1655,22284,16550.00
1656,22320,16560.00
1657,22360,16570.00
1658,22404,16580.00
1659,22444,16590.00
1660,22492,16600.00
1661,22456,16610.00
1662,22120,16620.00
1663,21700,16630.00
1664,21532,16640.00
1665,21576,16650.00
1666,21648,16660.00
1667,21700,16670.00
1668,21756,16680.00
1669,21784,16690.00
1670,21780,16700.00
1671,21780,16710.00
1672,21812,16720.00
1673,21876,16730.00
1674,21944,16740.00
1675,22012,16750.00
1676,22068,16760.00
1677,22116,16770.00
1678,22156,16780.00
1679,22192,16790.00
1680,22232,16800.00
1681,22284,16810.00
1682,22336,16820.00
1683,22380,16830.00
1684,22428,16840.00
1685,22472,16850.00
1686,22492,16860.00
1687,22280,16870.00
1688,21836,16880.00
1689,21548,16890.00
1690,21512,16900.00
1691,21588,16910.00
1692,21656,16920.00
1693,21716,16930.00
1694,21772,16940.00
1695,21792,16950.00
1696,21804,16960.00
1697,21832,16970.00
1698,21888,16980.00
1699,21968,16990.00
1700,22040,17000.00
1701,22100,17010.00
1702,22148,17020.00
1703,22188,17030.00
1704,22212,17040.00
1705,22244,17050.00
1706,22308,17060.00
1707,22380,17070.00
1708,22440,17080.00
1709,22416,17090.00
1710,22112,17100.00
1711,21756,17110.00
1712,21640,17120.00
1713,21688,17130.00
1714,21752,17140.00
1715,21816,17150.00
1716,21884,17160.00
1717,21920,17170.00
1718,21928,17180.00
1719,21944,17190.00
1720,22004,17200.00
1721,22084,17210.00
1722,22148,17220.00
1723,22176,17230.00
1724,22192,17240.00
1725,22208,17250.00
1726,22232,17260.00
1727,22268,17270.00
1728,22336,17280.00
1729,22344,17290.00
1730,22120,17300.00
1731,21720,17310.00
1732,21460,17320.00
1733,21456,17330.00
1734,21544,17340.00
1735,21608,17350.00
1736,21692,17360.00
1737,21764,17370.00
1738,21784,17380.00
1739,21800,17390.00
1740,21844,17400.00
1741,21920,17410.00
1742,22000,17420.00
1743,22076,17430.00
1744,22136,17440.00
1745,22184,17450.00
1746,22216,17460.00
1747,22236,17470.00
1748,22272,17480.00
1749,22296,17490.00
1750,22128,17500.00
1751,21756,17510.00
1752,21532,17520.00
1753,21504,17530.00
1754,21544,17540.00
1755,21592,17550.00
1756,21664,17560.00
1757,21724,17570.00
1758,21740,17580.00
1759,21740,17590.00
1760,21764,17600.00
1761,21820,17610.00
1762,21892,17620.00
1763,21960,17630.00
1764,22020,17640.00
1765,22072,17650.00
1766,22104,17660.00
1767,22140,17670.00
1768,22180,17680.00
1769,22148,17690.00
1770,21868,17700.00
1771,21552,17710.00
1772,21452,17720.00
1773,21508,17730.00
1774,21576,17740.00
1775,21644,17750.00
1776,21708,17760.00
1777,21736,17770.00
1778,21724,17780.00
1779,21732,17790.00
1780,21784,17800.00
1781,21860,17810.00
1782,21932,17820.00
1783,21996,17830.00
1784,22060,17840.00
1785,22108,17850.00
1786,22156,17860.00
1787,22160,17870.00
1788,21936,17880.00
1789,21616,17890.00
1790,21492,17900.00
1791,21540,17910.00
1792,21612,17920.00
1793,21696,17930.00
1794,21780,17940.00
1795,21812,17950.00
1796,21804,17960.00
1797,21808,17970.00
1798,21844,17980.00
1799,21912,17990.00
1800,22000,18000.00
1801,22080,18010.00
1802,22140,18020.00
1803,22180,18030.00
1804,22220,18040.00
1805,22260,18050.00
1806,22232,18060.00
1807,21956,18070.00
1808,21644,18080.00
1809,21552,18090.00
1810,21600,18100.00
1811,21644,18110.00
1812,21684,18120.00
1813,21764,18130.00
1814,21812,18140.00
1815,21820,18150.00
1816,21832,18160.00
1817,21884,18170.00
1818,21956,18180.00
1819,22040,18190.00
1820,22108,18200.00
1821,22168,18210.00
1822,22220,18220.00
1823,22256,18230.00
1824,22296,18240.00
1825,22348,18250.00
1826,22392,18260.00
1827,22428,18270.00
1828,22412,18280.00
1829,22112,18290.00
1830,21708,18300.00
1831,21540,18310.00
1832,21560,18320.00
1833,21600,18330.00
1834,21616,18340.00
1835,21672,18350.00
1836,21756,18360.00
1837,21800,18370.00
1838,21832,18380.00
1839,21880,18390.00
1840,21940,18400.00
1841,22008,18410.00
1842,22060,18420.00
1843,22096,18430.00
1844,22116,18440.00
1845,22136,18450.00
1846,22160,18460.00
1847,22192,18470.00
1848,22244,18480.00
1849,22312,18490.00
1850,22392,18500.00
1851,22472,18510.00
1852,22548,18520.00
1853,22612,18530.00
1854,22672,18540.00
1855,22732,18550.00
1856,22780,18560.00
1857,22652,18570.00
1858,22196,18580.00
1859,21748,18590.00
1860,21612,18600.00
1861,21644,18610.00
1862,21696,18620.00
1863,21752,18630.00
1864,21832,18640.00
1865,21884,18650.00
1866,21896,18660.00
1867,21908,18670.00
1868,21956,18680.00
1869,22024,18690.00
1870,22100,18700.00
1871,22164,18710.00
1872,22212,18720.00
1873,22248,18730.00
1874,22284,18740.00
1875,22324,18750.00
1876,22368,18760.00
1877,22420,18770.00
1878,22472,18780.00
1879,22532,18790.00
1880,22604,18800.00
1881,22684,18810.00
1882,22760,18820.00
1883,22704,18830.00
1884,22360,18840.00
1885,21980,18850.00
1886,21836,18860.00
1887,21864,18870.00
1888,21928,18880.00
1889,21976,18890.00
1890,22004,18900.00
1891,21992,18910.00
1892,21968,18920.00
1893,21976,18930.00
1894,22056,18940.00
1895,22152,18950.00
1896,22236,18960.00
1897,22300,18970.00
1898,22356,18980.00
1899,22404,18990.00
1900,22496,19000.00
1901,22608,19010.00
1902,22700,19020.00
1903,22796,19030.00
1904,22908,19040.00
1905,23004,19050.00
1906,22972,19060.00
1907,22696,19070.00
1908,22380,19080.00
1909,22244,19090.00
1910,22224,19100.00
1911,22284,19110.00
1912,22360,19120.00
1913,22388,19130.00
1914,22380,19140.00
1915,22344,19150.00
1916,22316,19160.00
1917,22308,19170.00
1918,22340,19180.00
1919,22384,19190.00
1920,22444,19200.00
1921,22500,19210.00
1922,22552,19220.00
1923,22616,19230.00
1924,22688,19240.00
1925,22732,19250.00
1926,22772,19260.00
1927,22828,19270.00
1928,22864,19280.00
1929,22692,19290.00
1930,22424,19300.00
1931,22300,19310.00
1932,22312,19320.00
1933,22348,19330.00
1934,22380,19340.00
1935,22436,19350.00
1936,22476,19360.00
1937,22508,19370.00
1938,22564,19380.00
1939,22616,19390.00
1940,22696,19400.00
1941,22796,19410.00
1942,22876,19420.00
1943,22960,19430.00
1944,23036,19440.00
1945,23096,19450.00
1946,23148,19460.00
1947,23188,19470.00
1948,23232,19480.00
1949,23272,19490.00
1950,23164,19500.00
1951,22840,19510.00
1952,22532,19520.00
1953,22424,19530.00
1954,22452,19540.00
1955,22520,19550.00
1956,22612,19560.00
1957,22668,19570.00
1958,22672,19580.00
1959,22660,19590.00
1960,22664,19600.00
1961,22684,19610.00
1962,22756,19620.00
1963,22832,19630.00
1964,22888,19640.00
1965,22940,19650.00
1966,22980,19660.00
1967,23012,19670.00
1968,23048,19680.00
1969,22944,19690.00
1970,22600,19700.00
1971,22284,19710.00
1972,22192,19720.00
1973,22232,19730.00
1974,22312,19740.00
1975,22420,19750.00
1976,22500,19760.00
1977,22520,19770.00
1978,22524,19780.00
1979,22540,19790.00
1980,22592,19800.00
1981,22680,19810.00
1982,22768,19820.00
1983,22852,19830.00
1984,22916,19840.00
1985,22972,19850.00
1986,22952,19860.00
1987,22688,19870.00
1988,22308,19880.00
1989,22116,19890.00
1990,22116,19900.00
1991,22176,19910.00
1992,22264,19920.00
1993,22348,19930.00
1994,22396,19940.00
1995,22400,19950.00
1996,22408,19960.00
1997,22436,19970.00
1998,22508,19980.00
1999,22600,19990.00
2000,22692,20000.00
2001,22772,20010.00
2002,22840,20020.00
2003,22864,20030.00
2004,22684,20040.00
2005,22348,20050.00
2006,22152,20060.00
2007,22156,20070.00
2008,22212,20080.00
2009,22280,20090.00
2010,22372,20100.00
2011,22440,20110.00
2012,22468,20120.00
2013,22480,20130.00
2014,22512,20140.00
2015,22576,20150.00
2016,22652,20160.00
2017,22728,20170.00
2018,22788,20180.00
2019,22844,20190.00
2020,22888,20200.00
2021,22828,20210.00
2022,22564,20220.00
2023,22312,20230.00
2024,22224,20240.00
2025,22244,20250.00
2026,22284,20260.00
2027,22348,20270.00
2028,22416,20280.00
2029,22460,20290.00
2030,22468,20300.00
2031,22488,20310.00
2032,22528,20320.00
2033,22576,20330.00
2034,22632,20340.00
2035,22688,20350.00
2036,22748,20360.00
2037,22796,20370.00
2038,22828,20380.00
2039,22720,20390.00
2040,22472,20400.00
2041,22284,20410.00
2042,22240,20420.00
2043,22268,20430.00
2044,22324,20440.00
2045,22396,20450.00
2046,22460,20460.00
2047,22496,20470.00
2048,22508,20480.00
2049,22532,20490.00
2050,22576,20500.00
2051,22640,20510.00
2052,22700,20520.00
2053,22760,20530.00
2054,22808,20540.00
2055,22860,20550.00
2056,22912,20560.00
2057,22900,20570.00
2058,22704,20580.00
2059,22488,20590.00
2060,22384,20600.00
2061,22380,20610.00
2062,22404,20620.00
2063,22448,20630.00
2064,22500,20640.00
2065,22536,20650.00
2066,22540,20660.00
2067,22544,20670.00
2068,22572,20680.00
2069,22612,20690.00
2070,22660,20700.00
2071,22716,20710.00
2072,22768,20720.00
2073,22820,20730.00
2074,22872,20740.00
2075,22924,20750.00
2076,22988,20760.00
2077,23048,20770.00
2078,23112,20780.00
2079,23180,20790.00
2080,23240,20800.00
2081,23296,20810.00
2082,23280,20820.00
2083,23060,20830.00
2084,22760,20840.00
2085,22560,20850.00
2086,22476,20860.00
2087,22460,20870.00
2088,22484,20880.00
2089,22536,20890.00
2090,22584,20900.00
2091,22608,20910.00
2092,22624,20920.00
2093,22660,20930.00
2094,22712,20940.00
2095,22772,20950.00
2096,22832,20960.00
2097,22884,20970.00
2098,22932,20980.00
2099,22980,20990.00
2100,23020,21000.00
2101,23068,21010.00
2102,23112,21020.00
2103,23164,21030.00
2104,23220,21040.00
2105,23276,21050.00
2106,23324,21060.00
2107,23380,21070.00
2108,23432,21080.00
2109,23464,21090.00
2110,23352,21100.00
2111,23056,21110.00
2112,22772,21120.00
2113,22628,21130.00
2114,22596,21140.00
2115,22608,21150.00
2116,22640,21160.00
2117,22676,21170.00
2118,22696,21180.00
2119,22696,21190.00
2120,22704,21200.00
2121,22740,21210.00
2122,22796,21220.00
2123,22856,21230.00
2124,22924,21240.00
2125,22988,21250.00
2126,23044,21260.00
2127,23100,21270.00
2128,23152,21280.00
2129,23192,21290.00
2130,23232,21300.00
2131,23280,21310.00
2132,23320,21320.00
2133,23360,21330.00
2134,23392,21340.00
2135,23432,21350.00
2136,23456,21360.00
2137,23304,21370.00
2138,22976,21380.00
2139,22676,21390.00
2140,22548,21400.00
2141,22532,21410.00
2142,22568,21420.00
2143,22616,21430.00
2144,22652,21440.00
2145,22664,21450.00
2146,22660,21460.00
2147,22680,21470.00
2148,22720,21480.00
2149,22784,21490.00
2150,22864,21500.00
2151,22948,21510.00
2152,23028,21520.00
2153,23064,21530.00
2154,23096,21540.00
2155,23132,21550.00
2156,23168,21560.00
2157,23196,21570.00
2158,23236,21580.00
2159,23280,21590.00
2160,23332,21600.00
2161,23360,21610.00
2162,23220,21620.00
2163,22932,21630.00
2164,22712,21640.00
2165,22656,21650.00
2166,22692,21660.00
2167,22772,21670.00
2168,22852,21680.00
2169,22888,21690.00
2170,22876,21700.00
2171,22848,21710.00
2172,22840,21720.00
2173,22856,21730.00
2174,22900,21740.00
2175,22960,21750.00
2176,23024,21760.00
2177,23068,21770.00
2178,23112,21780.00
2179,23152,21790.00
2180,23192,21800.00
2181,23240,21810.00
2182,23280,21820.00
2183,23164,21830.00
2184,22872,21840.00
2185,22620,21850.00
2186,22532,21860.00
2187,22580,21870.00
2188,22688,21880.00
2189,22792,21890.00
2190,22852,21900.00
2191,22848,21910.00
2192,22816,21920.00
2193,22800,21930.00
2194,22820,21940.00
2195,22868,21950.00
2196,22932,21960.00
2197,22992,21970.00
2198,23060,21980.00
2199,23120,21990.00
2200,23172,22000.00
2201,23124,22010.00
2202,22872,22020.00
2203,22564,22030.00
2204,22408,22040.00
2205,22420,22050.00
2206,22500,22060.00
2207,22584,22070.00
2208,22656,22080.00
2209,22684,22090.00
2210,22684,22100.00
2211,22692,22110.00
2212,22732,22120.00
2213,22800,22130.00
2214,22872,22140.00
2215,22936,22150.00
2216,22996,22160.00
2217,23036,22170.00
2218,23080,22180.00
2219,23028,22190.00
2220,22748,22200.00
2221,22424,22210.00
2222,22288,22220.00
2223,22308,22230.00
2224,22376,22240.00
2225,22436,22250.00
2226,22516,22260.00
2227,22564,22270.00
2228,22564,22280.00
2229,22572,22290.00
2230,22616,22300.00
2231,22676,22310.00
2232,22756,22320.00
2233,22832,22330.00
2234,22896,22340.00
2235,22944,22350.00
2236,22980,22360.00
2237,23024,22370.00
2238,23048,22380.00
2239,22852,22390.00
2240,22476,22400.00
2241,22236,22410.00
2242,22212,22420.00
2243,22276,22430.00
2244,22336,22440.00
2245,22412,22450.00
2246,22472,22460.00
2247,22500,22470.00
2248,22504,22480.00
2249,22532,22490.00
2250,22592,22500.00
2251,22664,22510.00
2252,22736,22520.00
2253,22800,22530.00
2254,22856,22540.00
2255,22908,22550.00
2256,22948,22560.00
2257,22984,22570.00
2258,23028,22580.00
2259,23084,22590.00
2260,23132,22600.00
2261,23196,22610.00
2262,23252,22620.00
2263,23304,22630.00
2264,23324,22640.00
2265,23104,22650.00
2266,22672,22660.00
2267,22352,22670.00
2268,22272,22680.00
2269,22320,22690.00
2270,22388,22700.00
2271,22444,22710.00
2272,22488,22720.00
2273,22496,22730.00
2274,22496,22740.00
2275,22516,22750.00
2276,22564,22760.00
2277,22636,22770.00
2278,22708,22780.00
2279,22780,22790.00
2280,22836,22800.00
2281,22884,22810.00
2282,22932,22820.00
2283,22972,22830.00
2284,23012,22840.00
2285,23056,22850.00
2286,23108,22860.00
2287,23160,22870.00
2288,23208,22880.00
2289,23248,22890.00
2290,23264,22900.00
2291,23072,22910.00
2292,22660,22920.00
2293,22352,22930.00
2294,22288,22940.00
2295,22352,22950.00
2296,22432,22960.00
2297,22516,22970.00
2298,22572,22980.00
2299,22588,22990.00
2300,22580,23000.00
2301,22596,23010.00
2302,22640,23020.00
2303,22704,23030.00
2304,22768,23040.00
2305,22824,23050.00
2306,22876,23060.00
2307,22924,23070.00
2308,22960,23080.00
2309,22996,23090.00
2310,23036,23100.00
2311,23084,23110.00
2312,23136,23120.00
2313,23192,23130.00
2314,23128,23140.00
2315,22820,23150.00
2316,22476,23160.00
2317,22348,23170.00
2318,22392,23180.00
2319,22476,23190.00
2320,22568,23200.00
2321,22628,23210.00
2322,22644,23220.00
2323,22624,23230.00
2324,22612,23240.00
2325,22636,23250.00
2326,22700,23260.00
2327,22768,23270.00
2328,22836,23280.00
2329,22892,23290.00
2330,22944,23300.00
2331,22992,23310.00
2332,23028,23320.00
2333,23068,23330.00
2334,23112,23340.00
2335,23152,23350.00
2336,23036,23360.00
2337,22680,23370.00
2338,22340,23380.00
2339,22232,23390.00
2340,22272,23400.00
2341,22332,23410.00
2342,22412,23420.00
2343,22480,23430.00
2344,22504,23440.00
2345,22496,23450.00
2346,22512,23460.00
2347,22560,23470.00
2348,22624,23480.00
2349,22700,23490.00
2350,22776,23500.00
2351,22836,23510.00
2352,22876,23520.00
2353,22916,23530.00
2354,22960,23540.00
2355,22996,23550.00
2356,23040,23560.00
2357,23088,23570.00
2358,23032,23580.00
2359,22704,23590.00
2360,22344,23600.00
2361,22196,23610.00
2362,22224,23620.00
2363,22288,23630.00
2364,22352,23640.00
2365,22424,23650.00
2366,22464,23660.00
2367,22468,23670.00
2368,22472,23680.00
2369,22504,23690.00
2370,22564,23700.00
2371,22636,23710.00
2372,22708,23720.00
2373,22760,23730.00
2374,22808,23740.00
2375,22860,23750.00
2376,22916,23760.00
2377,22952,23770.00
2378,22972,23780.00
2379,22992,23790.00
2380,22896,23800.00
2381,22544,23810.00
2382,22164,23820.00
2383,22020,23830.00
2384,22044,23840.00
2385,22124,23850.00
2386,22216,23860.00
2387,22308,23870.00
2388,22344,23880.00
2389,22356,23890.00
2390,22384,23900.00
2391,22428,23910.00
2392,22484,23920.00
2393,22552,23930.00
2394,22628,23940.00
2395,22696,23950.00
2396,22752,23960.00
2397,22788,23970.00
2398,22820,23980.00
2399,22852,23990.00
2400,22900,24000.00
2401,22952,24010.00
2402,22948,24020.00
2403,22688,24030.00
2404,22308,24040.00
2405,22116,24050.00
2406,22140,24060.00
2407,22228,24070.00
2408,22296,24080.00
2409,22368,24090.00
2410,22404,24100.00
2411,22412,24110.00
2412,22412,24120.00
2413,22448,24130.00
2414,22500,24140.00
2415,22568,24150.00
2416,22632,24160.00
2417,22684,24170.00
2418,22728,24180.00
2419,22756,24190.00
2420,22792,24200.00
2421,22816,24210.00
2422,22652,24220.00
2423,22304,24230.00
2424,22076,24240.00
2425,22060,24250.00
2426,22124,24260.00
2427,22188,24270.00
2428,22264,24280.00
2429,22312,24290.00
2430,22320,24300.00
2431,22324,24310.00
2432,22352,24320.00
2433,22400,24330.00
2434,22476,24340.00
2435,22552,24350.00
2436,22616,24360.00
2437,22676,24370.00
2438,22720,24380.00
2439,22760,24390.00
2440,22648,24400.00
2441,22312,24410.00
2442,22044,24420.00
2443,22012,24430.00
2444,22076,24440.00
2445,22132,24450.00
2446,22192,24460.00
2447,22248,24470.00
2448,22272,24480.00
2449,22272,24490.00
2450,22288,24500.00
2451,22336,24510.00
2452,22408,24520.00
2453,22488,24530.00
2454,22556,24540.00
2455,22616,24550.00
2456,22664,24560.00
2457,22708,24570.00
2458,22752,24580.00
2459,22676,24590.00
2460,22368,24600.00
2461,22080,24610.00
2462,22000,24620.00
2463,22036,24630.00
2464,22072,24640.00
2465,22128,24650.00
2466,22192,24660.00
2467,22240,24670.00
2468,22256,24680.00
2469,22284,24690.00
2470,22340,24700.00
2471,22412,24710.00
2472,22484,24720.00
2473,22548,24730.00
2474,22612,24740.00
2475,22660,24750.00
2476,22700,24760.00
2477,22724,24770.00
2478,22764,24780.00
2479,22796,24790.00
2480,22796,24800.00
2481,22572,24810.00
2482,22216,24820.00
2483,22008,24830.00
2484,21988,24840.00
2485,22020,24850.00
2486,22060,24860.00
2487,22124,24870.00
2488,22172,24880.00
2489,22192,24890.00
2490,22212,24900.00
2491,22248,24910.00
2492,22304,24920.00
2493,22376,24930.00
2494,22440,24940.00
2495,22504,24950.00
2496,22552,24960.00
2497,22588,24970.00
2498,22632,24980.00
2499,22676,24990.00
2500,22688,25000.00
2501,22504,25010.00
2502,22212,25020.00
2503,22060,25030.00
2504,22072,25040.00
2505,22140,25050.00
2506,22212,25060.00
2507,22288,25070.00
2508,22324,25080.00
2509,22324,25090.00
2510,22320,25100.00
2511,22352,25110.00
2512,22408,25120.00
2513,22480,25130.00
2514,22540,25140.00
2515,22588,25150.00
2516,22628,25160.00
2517,22656,25170.00
2518,22676,25180.00
2519,22712,25190.00
2520,22688,25200.00
2521,22452,25210.00
2522,22136,25220.00
2523,21984,25230.00
2524,22000,25240.00
2525,22052,25250.00
2526,22120,25260.00
2527,22204,25270.00
2528,22244,25280.00
2529,22256,25290.00
2530,22276,25300.00
2531,22312,25310.00
2532,22380,25320.00
2533,22452,25330.00
2534,22524,25340.00
2535,22584,25350.00
2536,22644,25360.00
2537,22692,25370.00
2538,22744,25380.00
2539,22804,25390.00
2540,22872,25400.00
2541,22868,25410.00
2542,22632,25420.00
2543,22308,25430.00
2544,22144,25440.00
2545,22144,25450.00
2546,22180,25460.00
2547,22224,25470.00
2548,22292,25480.00
2549,22340,25490.00
2550,22352,25500.00
2551,22364,25510.00
2552,22404,25520.00
2553,22468,25530.00
2554,22540,25540.00
2555,22612,25550.00
2556,22668,25560.00
2557,22720,25570.00
2558,22776,25580.00
2559,22824,25590.00
2560,22872,25600.00
2561,22928,25610.00
2562,22976,25620.00
2563,23028,25630.00
2564,23008,25640.00
2565,22748,25650.00
2566,22384,25660.00
2567,22196,25670.00
2568,22192,25680.00
2569,22240,25690.00
2570,22296,25700.00
2571,22360,25710.00
2572,22404,25720.00
2573,22412,25730.00
2574,22412,25740.00
2575,22444,25750.00
2576,22496,25760.00
2577,22564,25770.00
2578,22640,25780.00
2579,22700,25790.00
2580,22752,25800.00
2581,22792,25810.00
2582,22832,25820.00
2583,22876,25830.00
2584,22916,25840.00
2585,22964,25850.00
2586,23004,25860.00
2587,22852,25870.00
2588,22512,25880.00
2589,22256,25890.00
2590,22224,25900.00
2591,22288,25910.00
2592,22352,25920.00
2593,22432,25930.00
2594,22484,25940.00
2595,22492,25950.00
2596,22476,25960.00
2597,22484,25970.00
2598,22528,25980.00
2599,22592,25990.00
2600,22656,26000.00
2601,22720,26010.00
2602,22780,26020.00
2603,22828,26030.00
2604,22872,26040.00
2605,22908,26050.00
2606,22952,26060.00
2607,23000,26070.00
2608,23036,26080.00
2609,22888,26090.00
2610,22524,26100.00
2611,22236,26110.00
2612,22176,26120.00
2613,22224,26130.00
2614,22284,26140.00
2615,22364,26150.00
2616,22420,26160.00
2617,22440,26170.00
2618,22440,26180.00
2619,22460,26190.00
2620,22516,26200.00
2621,22592,26210.00
2622,22672,26220.00
2623,22740,26230.00
2624,22804,26240.00
2625,22848,26250.00
2626,22892,26260.00
2627,22924,26270.00
2628,22956,26280.00
2629,22984,26290.00
2630,23020,26300.00
2631,23012,26310.00
2632,22764,26320.00
2633,22348,26330.00
2634,22104,26340.00
2635,22092,26350.00
2636,22160,26360.00
2637,22236,26370.00
2638,22312,26380.00
2639,22368,26390.00
2640,22388,26400.00
2641,22396,26410.00
2642,22416,26420.00
2643,22476,26430.00
2644,22548,26440.00
2645,22620,26450.00
2646,22680,26460.00
2647,22728,26470.00
2648,22772,26480.00
2649,22816,26490.00
2650,22852,26500.00
2651,22892,26510.00
2652,22936,26520.00
2653,22984,26530.00
2654,23008,26540.00
2655,22800,26550.00
2656,22400,26560.00
2657,22132,26570.00
2658,22104,26580.00
2659,22172,26590.00
2660,22248,26600.00
2661,22328,26610.00
2662,22376,26620.00
2663,22384,26630.00
2664,22380,26640.00
2665,22404,26650.00
2666,22452,26660.00
2667,22520,26670.00
2668,22592,26680.00
2669,22660,26690.00
2670,22720,26700.00
2671,22772,26710.00
2672,22816,26720.00
2673,22860,26730.00
2674,22896,26740.00
2675,22936,26750.00
2676,22980,26760.00
2677,22876,26770.00
2678,22524,26780.00
2679,22180,26790.00
2680,22084,26800.00
2681,22140,26810.00
2682,22208,26820.00
2683,22280,26830.00
2684,22344,26840.00
2685,22368,26850.00
2686,22364,26860.00
2687,22372,26870.00
2688,22412,26880.00
2689,22480,26890.00
2690,22552,26900.00
2691,22612,26910.00
2692,22672,26920.00
2693,22716,26930.00
2694,22752,26940.00
2695,22788,26950.00
2696,22824,26960.00
2697,22856,26970.00
2698,22704,26980.00
2699,22356,26990.00
2700,22108,27000.00
2701,22084,27010.00
2702,22160,27020.00
2703,22252,27030.00
2704,22340,27040.00
2705,22380,27050.00
2706,22372,27060.00
2707,22360,27070.00
2708,22376,27080.00
2709,22432,27090.00
2710,22508,27100.00
2711,22568,27110.00
2712,22624,27120.00
2713,22660,27130.00
2714,22700,27140.00
2715,22728,27150.00
2716,22760,27160.00
2717,22648,27170.00
2718,22316,27180.00
2719,22044,27190.00
2720,22000,27200.00
2721,22064,27210.00
2722,22136,27220.00
2723,22220,27230.00
2724,22276,27240.00
2725,22280,27250.00
2726,22280,27260.00
2727,22304,27270.00
2728,22352,27280.00
2729,22416,27290.00
2730,22484,27300.00
2731,22548,27310.00
2732,22596,27320.00
2733,22636,27330.00
2734,22672,27340.00
2735,22716,27350.00
2736,22756,27360.00
2737,22664,27370.00
2738,22312,27380.00
2739,22012,27390.00
2740,21948,27400.00
2741,22000,27410.00
2742,22052,27420.00
2743,22120,27430.00
2744,22192,27440.00
2745,22224,27450.00
2746,22228,27460.00
2747,22244,27470.00
2748,22284,27480.00
2749,22340,27490.00
2750,22400,27500.00
2751,22464,27510.00
2752,22512,27520.00
2753,22556,27530.00
2754,22600,27540.00
2755,22640,27550.00
2756,22684,27560.00
2757,22720,27570.00
2758,22752,27580.00
2759,22800,27590.00
2760,22800,27600.00
2761,22532,27610.00
2762,22108,27620.00
2763,21904,27630.00
2764,21920,27640.00
2765,21976,27650.00
2766,22012,27660.00
2767,22080,27670.00
2768,22140,27680.00
2769,22168,27690.00
2770,22176,27700.00
2771,22212,27710.00
2772,22268,27720.00
2773,22340,27730.00
2774,22404,27740.00
2775,22460,27750.00
2776,22508,27760.00
2777,22544,27770.00
2778,22572,27780.00
2779,22604,27790.00
2780,22636,27800.00
2781,22676,27810.00
2782,22720,27820.00
2783,22760,27830.00
2784,22812,27840.00
2785,22776,27850.00
2786,22448,27860.00
2787,22060,27870.00
2788,21924,27880.00
2789,21964,27890.00
2790,22016,27900.00
2791,22056,27910.00
2792,22128,27920.00
2793,22172,27930.00
2794,22172,27940.00
2795,22176,27950.00
2796,22204,27960.00
2797,22260,27970.00
2798,22324,27980.00
2799,22384,27990.00
2800,22432,28000.00
2801,22472,28010.00
2802,22504,28020.00
2803,22540,28030.00
2804,22584,28040.00
2805,22628,28050.00
2806,22676,28060.00
2807,22724,28070.00
2808,22764,28080.00
2809,22632,28090.00
2810,22260,28100.00
2811,21976,28110.00
2812,21936,28120.00
2813,22000,28130.00
2814,22060,28140.00
2815,22132,28150.00
2816,22180,28160.00
2817,22188,28170.00
2818,22188,28180.00
2819,22208,28190.00
2820,22256,28200.00
2821,22332,28210.00
2822,22408,28220.00
2823,22468,28230.00
2824,22508,28240.00
2825,22548,28250.00
2826,22588,28260.00
2827,22624,28270.00
2828,22660,28280.00
2829,22696,28290.00
2830,22740,28300.00
2831,22704,28310.00
2832,22392,28320.00
2833,22040,28330.00
2834,21916,28340.00
2835,21964,28350.00
2836,22024,28360.00
2837,22084,28370.00
2838,22164,28380.00
2839,22204,28390.00
2840,22204,28400.00
2841,22216,28410.00
2842,22268,28420.00
2843,22332,28430.00
2844,22400,28440.00
2845,22456,28450.00
2846,22508,28460.00
2847,22548,28470.00
2848,22576,28480.00
2849,22612,28490.00
2850,22652,28500.00
2851,22696,28510.00
2852,22744,28520.00
2853,22792,28530.00
2854,22836,28540.00
2855,22676,28550.00
2856,22268,28560.00
2857,21976,28570.00
2858,21940,28580.00
2859,22000,28590.00
2860,22048,28600.00
2861,22104,28610.00
2862,22164,28620.00
2863,22188,28630.00
2864,22192,28640.00
2865,22204,28650.00
2866,22252,28660.00
2867,22324,28670.00
2868,22400,28680.00
2869,22468,28690.00
2870,22512,28700.00
2871,22556,28710.00
2872,22596,28720.00
2873,22632,28730.00
2874,22680,28740.00
2875,22724,28750.00
2876,22768,28760.00
2877,22812,28770.00
2878,22848,28780.00
2879,22704,28790.00
2880,22292,28800.00
2881,21972,28810.00
2882,21916,28820.00
2883,21976,28830.00
2884,22024,28840.00
2885,22088,28850.00
2886,22156,28860.00
2887,22188,28870.00
2888,22200,28880.00
2889,22216,28890.00
2890,22260,28900.00
2891,22332,28910.00
2892,22408,28920.00
2893,22468,28930.00
2894,22512,28940.00
2895,22552,28950.00
2896,22584,28960.00
2897,22616,28970.00
2898,22652,28980.00
2899,22700,28990.00
2900,22752,29000.00
2901,22728,29010.00
2902,22432,29020.00
2903,22064,29030.00
2904,21924,29040.00
2905,21956,29050.00
2906,22016,29060.00
2907,22068,29070.00
2908,22140,29080.00
2909,22180,29090.00
2910,22176,29100.00
2911,22168,29110.00
2912,22200,29120.00
2913,22256,29130.00
2914,22320,29140.00
2915,22384,29150.00
2916,22436,29160.00
2917,22480,29170.00
2918,22508,29180.00
2919,22544,29190.00
2920,22588,29200.00
2921,22628,29210.00
2922,22488,29220.00
2923,22168,29230.00
2924,21960,29240.00
2925,21956,29250.00
2926,22012,29260.00
2927,22064,29270.00
2928,22140,29280.00
2929,22180,29290.00
2930,22180,29300.00
2931,22180,29310.00
2932,22212,29320.00
2933,22268,29330.00
2934,22340,29340.00
2935,22408,29350.00
2936,22460,29360.00
2937,22512,29370.00
2938,22556,29380.00
2939,22596,29390.00
2940,22624,29400.00
2941,22484,29410.00
2942,22216,29420.00
2943,22052,29430.00
2944,22036,29440.00
2945,22076,29450.00
2946,22124,29460.00
2947,22192,29470.00
2948,22240,29480.00
2949,22252,29490.00
2950,22264,29500.00
2951,22304,29510.00
2952,22360,29520.00
2953,22428,29530.00
2954,22492,29540.00
2955,22548,29550.00
2956,22596,29560.00
2957,22644,29570.00
2958,22688,29580.00
2959,22736,29590.00
2960,22784,29600.00
2961,22804,29610.00
2962,22660,29620.00
2963,22400,29630.00
2964,22232,29640.00
2965,22200,29650.00
2966,22204,29660.00
2967,22228,29670.00
2968,22288,29680.00
2969,22340,29690.00
2970,22372,29700.00
2971,22392,29710.00
2972,22420,29720.00
2973,22468,29730.00
2974,22532,29740.00
2975,22584,29750.00
2976,22632,29760.00
2977,22672,29770.00
2978,22712,29780.00
2979,22752,29790.00
2980,22796,29800.00
2981,22840,29810.00
2982,22884,29820.00
2983,22944,29830.00
2984,22992,29840.00
2985,23040,29850.00
2986,23092,29860.00
2987,23140,29870.00
2988,23188,29880.00
2989,23108,29890.00
2990,22860,29900.00
2991,22628,29910.00
2992,22508,29920.00
2993,22464,29930.00
2994,22440,29940.00
2995,22452,29950.00
2996,22492,29960.00
2997,22516,29970.00
2998,22520,29980.00
2999,22536,29990.00
3000,22568,30000.00
3001,22616,30010.00
3002,22672,30020.00
3003,22724,30030.00
3004,22760,30040.00
3005,22788,30050.00
3006,22816,30060.00
3007,22840,30070.00
3008,22868,30080.00
3009,22904,30090.00
3010,22944,30100.00
3011,22984,30110.00
3012,23024,30120.00
3013,23064,30130.00
3014,23084,30140.00
3015,22960,30150.00
3016,22712,30160.00
3017,22508,30170.00
3018,22428,30180.00
3019,22412,30190.00
3020,22412,30200.00
3021,22440,30210.00
3022,22472,30220.00
3023,22480,30230.00
3024,22472,30240.00
3025,22488,30250.00
3026,22520,30260.00
3027,22568,30270.00
3028,22632,30280.00
3029,22676,30290.00
3030,22712,30300.00
3031,22760,30310.00
3032,22808,30320.00
3033,22856,30330.00
3034,22904,30340.00
3035,22952,30350.00
3036,23000,30360.00
3037,23056,30370.00
3038,23076,30380.00
3039,22924,30390.00
3040,22664,30400.00
3041,22476,30410.00
3042,22412,30420.00
3043,22408,30430.00
3044,22436,30440.00
3045,22488,30450.00
3046,22520,30460.00
3047,22524,30470.00
3048,22516,30480.00
3049,22520,30490.00
3050,22552,30500.00
3051,22596,30510.00
3052,22640,30520.00
3053,22680,30530.00
3054,22712,30540.00
3055,22744,30550.00
3056,22776,30560.00
3057,22812,30570.00
3058,22848,30580.00
3059,22884,30590.00
3060,22928,30600.00
3061,22980,30610.00
3062,22960,30620.00
3063,22736,30630.00
3064,22420,30640.00
3065,22240,30650.00
3066,22212,30660.00
3067,22224,30670.00
3068,22252,30680.00
3069,22320,30690.00
3070,22372,30700.00
3071,22380,30710.00
3072,22388,30720.00
3073,22420,30730.00
3074,22476,30740.00
3075,22540,30750.00
3076,22596,30760.00
3077,22644,30770.00
3078,22688,30780.00
3079,22724,30790.00
3080,22764,30800.00
3081,22808,30810.00
3082,22848,30820.00
3083,22896,30830.00
3084,22944,30840.00
3085,23000,30850.00
3086,23016,30860.00
3087,22824,30870.00
3088,22476,30880.00
3089,22240,30890.00
3090,22200,30900.00
3091,22220,30910.00
3092,22236,30920.00
3093,22288,30930.00
3094,22340,30940.00
3095,22352,30950.00
3096,22348,30960.00
3097,22364,30970.00
3098,22404,30980.00
3099,22464,30990.00
3100,22536,31000.00
3101,22592,31010.00
3102,22644,31020.00
3103,22688,31030.00
3104,22720,31040.00
3105,22760,31050.00
3106,22796,31060.00
3107,22836,31070.00
3108,22836,31080.00
3109,22648,31090.00
3110,22320,31100.00
3111,22108,31110.00
3112,22088,31120.00
3113,22136,31130.00
3114,22196,31140.00
3115,22272,31150.00
3116,22312,31160.00
3117,22316,31170.00
3118,22316,31180.00
3119,22340,31190.00
3120,22392,31200.00
3121,22464,31210.00
3122,22524,31220.00
3123,22572,31230.00
3124,22600,31240.00
3125,22608,31250.00
3126,22616,31260.00
3127,22632,31270.00
3128,22588,31280.00
3129,22328,31290.00
3130,21968,31300.00
3131,21804,31310.00
3132,21872,31320.00
3133,21960,31330.00
3134,22040,31340.00
3135,22128,31350.00
3136,22176,31360.00
3137,22188,31370.00
3138,22196,31380.00
3139,22232,31390.00
3140,22288,31400.00
3141,22356,31410.00
3142,22412,31420.00
3143,22460,31430.00
3144,22508,31440.00
3145,22548,31450.00
3146,22588,31460.00
3147,22636,31470.00
3148,22664,31480.00
3149,22488,31490.00
3150,22128,31500.00
3151,21896,31510.00
3152,21880,31520.00
3153,21928,31530.00
3154,21964,31540.00
3155,22032,31550.00
3156,22100,31560.00
3157,22136,31570.00
3158,22136,31580.00
3159,22152,31590.00
3160,22208,31600.00
3161,22276,31610.00
3162,22340,31620.00
3163,22400,31630.00
3164,22452,31640.00
3165,22488,31650.00
3166,22536,31660.00
3167,22576,31670.00
3168,22624,31680.00
3169,22668,31690.00
3170,22712,31700.00
3171,22728,31710.00
3172,22528,31720.00
3173,22100,31730.00
3174,21764,31740.00
3175,21648,31750.00
3176,21660,31760.00
3177,21700,31770.00
3178,21792,31780.00
3179,21888,31790.00
3180,21948,31800.00
3181,21968,31810.00
3182,22004,31820.00
3183,22056,31830.00
3184,22124,31840.00
3185,22196,31850.00
3186,22256,31860.00
3187,22292,31870.00
3188,22320,31880.00
3189,22344,31890.00
3190,22356,31900.00
3191,22364,31910.00
3192,22392,31920.00
3193,22448,31930.00
3194,22528,31940.00
3195,22616,31950.00
3196,22672,31960.00
3197,22484,31970.00
3198,22104,31980.00
3199,21892,31990.00
3200,21896,32000.00
3201,21968,32010.00
3202,22024,32020.00
3203,22096,32030.00
3204,22156,32040.00
3205,22172,32050.00
3206,22172,32060.00
3207,22196,32070.00
3208,22244,32080.00
3209,22308,32090.00
3210,22380,32100.00
3211,22436,32110.00
3212,22480,32120.00
3213,22520,32130.00
3214,22568,32140.00
3215,22616,32150.00
3216,22660,32160.00
3217,22708,32170.00
3218,22764,32180.00
3219,22824,32190.00
3220,22752,32200.00
3221,22420,32210.00
3222,22084,32220.00
3223,21980,32230.00
3224,22024,32240.00
3225,22080,32250.00
3226,22136,32260.00
3227,22208,32270.00
3228,22236,32280.00
3229,22232,32290.00
3230,22252,32300.00
3231,22300,32310.00
3232,22376,32320.00
3233,22456,32330.00
3234,22532,32340.00
3235,22596,32350.00
3236,22648,32360.00
3237,22700,32370.00
3238,22756,32380.00
3239,22800,32390.00
3240,22840,32400.00
3241,22880,32410.00
3242,22924,32420.00
3243,22984,32430.00
3244,22976,32440.00
3245,22704,32450.00
3246,22292,32460.00
3247,22076,32470.00
3248,22076,32480.00
3249,22124,32490.00
3250,22156,32500.00
3251,22220,32510.00
3252,22272,32520.00
3253,22288,32530.00
3254,22296,32540.00
3255,22316,32550.00
3256,22372,32560.00
3257,22436,32570.00
3258,22512,32580.00
3259,22584,32590.00
3260,22636,32600.00
3261,22680,32610.00
3262,22716,32620.00
3263,22756,32630.00
3264,22796,32640.00
3265,22848,32650.00
3266,22900,32660.00
3267,22956,32670.00
3268,23012,32680.00
3269,23064,32690.00
3270,23016,32700.00
3271,22680,32710.00
3272,22268,32720.00
3273,22092,32730.00
3274,22108,32740.00
3275,22160,32750.00
3276,22208,32760.00
3277,22268,32770.00
3278,22304,32780.00
3279,22304,32790.00
3280,22296,32800.00
3281,22308,32810.00
3282,22360,32820.00
3283,22428,32830.00
3284,22500,32840.00
3285,22560,32850.00
3286,22612,32860.00
3287,22660,32870.00
3288,22700,32880.00
3289,22740,32890.00
3290,22784,32900.00
3291,22832,32910.00
3292,22880,32920.00
3293,22924,32930.00
3294,22964,32940.00
3295,22852,32950.00
3296,22476,32960.00
3297,22144,32970.00
3298,22060,32980.00
3299,22116,32990.00
3300,22188,33000.00
3301,22264,33010.00
3302,22320,33020.00
3303,22336,33030.00
3304,22332,33040.00
3305,22344,33050.00
3306,22388,33060.00
3307,22452,33070.00
3308,22520,33080.00
3309,22584,33090.00
3310,22640,33100.00
3311,22680,33110.00
3312,22720,33120.00
3313,22768,33130.00
3314,22812,33140.00
3315,22856,33150.00
3316,22908,33160.00
3317,22916,33170.00
3318,22668,33180.00
3319,22280,33190.00
3320,22068,33200.00
3321,22068,33210.00
3322,22132,33220.00
3323,22192,33230.00
3324,22256,33240.00
3325,22296,33250.00
3326,22308,33260.00
3327,22304,33270.00
3328,22324,33280.00
3329,22384,33290.00
3330,22452,33300.00
3331,22524,33310.00
3332,22584,33320.00
3333,22636,33330.00
3334,22680,33340.00
3335,22724,33350.00
3336,22764,33360.00
3337,22804,33370.00
3338,22848,33380.00
3339,22896,33390.00
3340,22872,33400.00
3341,22568,33410.00
3342,22156,33420.00
3343,21960,33430.00
3344,21968,33440.00
3345,22024,33450.00
3346,22072,33460.00
3347,22140,33470.00
3348,22192,33480.00
3349,22204,33490.00
3350,22216,33500.00
3351,22248,33510.00
3352,22300,33520.00
3353,22356,33530.00
3354,22432,33540.00
3355,22488,33550.00
3356,22532,33560.00
3357,22568,33570.00
3358,22604,33580.00
3359,22644,33590.00
3360,22680,33600.00
3361,22720,33610.00
3362,22764,33620.00
3363,22812,33630.00
3364,22848,33640.00
3365,22696,33650.00
3366,22280,33660.00
3367,21956,33670.00
3368,21888,33680.00
3369,21940,33690.00
3370,21988,33700.00
3371,22052,33710.00
3372,22112,33720.00
3373,22136,33730.00
3374,22136,33740.00
3375,22152,33750.00
3376,22192,33760.00
3377,22256,33770.00
3378,22332,33780.00
3379,22400,33790.00
3380,22460,33800.00
3381,22504,33810.00
3382,22544,33820.00
3383,22584,33830.00
3384,22632,33840.00
3385,22680,33850.00
3386,22724,33860.00
3387,22776,33870.00
3388,22828,33880.00
3389,22700,33890.00
3390,22304,33900.00
3391,21976,33910.00
3392,21896,33920.00
3393,21948,33930.00
3394,21996,33940.00
3395,22060,33950.00
3396,22124,33960.00
3397,22152,33970.00
3398,22144,33980.00
3399,22156,33990.00
3400,22200,34000.00
3401,22264,34010.00
3402,22332,34020.00
3403,22400,34030.00
3404,22456,34040.00
3405,22496,34050.00
3406,22528,34060.00
3407,22564,34070.00
3408,22600,34080.00
3409,22648,34090.00
3410,22684,34100.00
3411,22536,34110.00
3412,22180,34120.00
3413,21940,34130.00
3414,21920,34140.00
3415,21984,34150.00
3416,22060,34160.00
3417,22140,34170.00
3418,22184,34180.00
3419,22188,34190.00
3420,22176,34200.00
3421,22196,34210.00
3422,22248,34220.00
3423,22304,34230.00
3424,22368,34240.00
3425,22424,34250.00
3426,22468,34260.00
3427,22504,34270.00
3428,22536,34280.00
3429,22572,34290.00
3430,22616,34300.00
3431,22656,34310.00
3432,22540,34320.00
3433,22184,34330.00
3434,21892,34340.00
3435,21840,34350.00
3436,21888,34360.00
3437,21936,34370.00
3438,21996,34380.00
3439,22056,34390.00
3440,22084,34400.00
3441,22084,34410.00
3442,22100,34420.00
3443,22140,34430.00
3444,22212,34440.00
3445,22296,34450.00
3446,22356,34460.00
3447,22408,34470.00
3448,22460,34480.00
3449,22504,34490.00
3450,22548,34500.00
3451,22592,34510.00
3452,22632,34520.00
3453,22668,34530.00
3454,22516,34540.00
3455,22124,34550.00
3456,21836,34560.00
3457,21792,34570.00
3458,21832,34580.00
3459,21852,34590.00
3460,21900,34600.00
3461,21968,34610.00
3462,22004,34620.00
3463,22012,34630.00
3464,22036,34640.00
3465,22084,34650.00
3466,22152,34660.00
3467,22220,34670.00
3468,22284,34680.00
3469,22332,34690.00
3470,22368,34700.00
3471,22400,34710.00
3472,22432,34720.00
3473,22468,34730.00
3474,22516,34740.00
3475,22556,34750.00
3476,22600,34760.00
3477,22624,34770.00
3478,22396,34780.00
3479,22000,34790.00
3480,21796,34800.00
3481,21804,34810.00
3482,21860,34820.00
3483,21896,34830.00
3484,21972,34840.00
3485,22032,34850.00
3486,22052,34860.00
3487,22060,34870.00
3488,22084,34880.00
3489,22132,34890.00
3490,22200,34900.00
3491,22260,34910.00
3492,22304,34920.00
3493,22348,34930.00
3494,22380,34940.00
3495,22412,34950.00
3496,22448,34960.00
3497,22488,34970.00
3498,22524,34980.00
3499,22572,34990.00
3500,22548,35000.00
3501,22264,35010.00
3502,21920,35020.00
3503,21796,35030.00
3504,21828,35040.00
3505,21872,35050.00
3506,21928,35060.00
3507,22004,35070.00
3508,22044,35080.00
3509,22044,35090.00
3510,22052,35100.00
3511,22092,35110.00
3512,22156,35120.00
3513,22236,35130.00
3514,22304,35140.00
3515,22356,35150.00
3516,22396,35160.00
3517,22432,35170.00
3518,22472,35180.00
3519,22512,35190.00
3520,22556,35200.00
3521,22596,35210.00
3522,22644,35220.00
3523,22688,35230.00
3524,22736,35240.00
3525,22704,35250.00
3526,22372,35260.00
3527,21984,35270.00
3528,21836,35280.00
3529,21872,35290.00
3530,21920,35300.00
3531,21960,35310.00
3532,22032,35320.00
3533,22088,35330.00
3534,22104,35340.00
3535,22104,35350.00
3536,22136,35360.00
3537,22188,35370.00
3538,22260,35380.00
3539,22328,35390.00
3540,22380,35400.00
3541,22424,35410.00
3542,22468,35420.00
3543,22504,35430.00
3544,22552,35440.00
3545,22600,35450.00
3546,22652,35460.00
3547,22708,35470.00
3548,22756,35480.00
3549,22812,35490.00
3550,22816,35500.00
3551,22536,35510.00
3552,22124,35520.00
3553,21928,35530.00
3554,21936,35540.00
3555,21996,35550.00
3556,22040,35560.00
3557,22108,35570.00
3558,22176,35580.00
3559,22208,35590.00
3560,22216,35600.00
3561,22240,35610.00
3562,22300,35620.00
3563,22372,35630.00
3564,22444,35640.00
3565,22504,35650.00
3566,22556,35660.00
3567,22592,35670.00
3568,22628,35680.00
3569,22664,35690.00
3570,22708,35700.00
3571,22760,35710.00
3572,22804,35720.00
3573,22856,35730.00
3574,22916,35740.00
3575,22888,35750.00
3576,22592,35760.00
3577,22232,35770.00
3578,22096,35780.00
3579,22144,35790.00
3580,22212,35800.00
3581,22280,35810.00
3582,22344,35820.00
3583,22356,35830.00
3584,22332,35840.00
3585,22312,35850.00
3586,22336,35860.00
3587,22392,35870.00
3588,22452,35880.00
3589,22516,35890.00
3590,22564,35900.00
3591,22612,35910.00
3592,22648,35920.00
3593,22692,35930.00
3594,22732,35940.00
3595,22776,35950.00
3596,22820,35960.00
3597,22860,35970.00
3598,22720,35980.00
3599,22344,35990.00
3600,22048,36000.00
3601,21980,36010.00
3602,22008,36020.00
3603,22044,36030.00
3604,22100,36040.00
3605,22152,36050.00
3606,22176,36060.00
3607,22180,36070.00
3608,22200,36080.00
3609,22244,36090.00
3610,22316,36100.00
3611,22396,36110.00
3612,22460,36120.00
3613,22512,36130.00
3614,22556,36140.00
3615,22596,36150.00
3616,22632,36160.00
3617,22668,36170.00
3618,22704,36180.00
3619,22748,36190.00
3620,22796,36200.00
3621,22692,36210.00
3622,22320,36220.00
3623,21988,36230.00
3624,21904,36240.00
3625,21956,36250.00
3626,22012,36260.00
3627,22076,36270.00
3628,22148,36280.00
3629,22188,36290.00
3630,22200,36300.00
3631,22208,36310.00
3632,22248,36320.00
3633,22304,36330.00
3634,22372,36340.00
3635,22436,36350.00
3636,22492,36360.00
3637,22532,36370.00
3638,22572,36380.00
3639,22616,36390.00
3640,22656,36400.00
3641,22700,36410.00
3642,22748,36420.00
3643,22800,36430.00
3644,22860,36440.00
3645,22780,36450.00
3646,22424,36460.00
3647,22068,36470.00
3648,21960,36480.00
3649,22004,36490.00
3650,22056,36500.00
3651,22108,36510.00
3652,22176,36520.00
3653,22216,36530.00
3654,22220,36540.00
3655,22228,36550.00
3656,22260,36560.00
3657,22316,36570.00
3658,22388,36580.00
3659,22456,36590.00
3660,22512,36600.00
3661,22560,36610.00
3662,22604,36620.00
3663,22636,36630.00
3664,22672,36640.00
3665,22708,36650.00
3666,22752,36660.00
3667,22776,36670.00
3668,22584,36680.00
3669,22224,36690.00
3670,21996,36700.00
3671,21984,36710.00
3672,22056,36720.00
3673,22120,36730.00
3674,22192,36740.00
3675,22240,36750.00
3676,22244,36760.00
3677,22236,36770.00
3678,22260,36780.00
3679,22308,36790.00
3680,22384,36800.00
3681,22460,36810.00
3682,22516,36820.00
3683,22564,36830.00
3684,22600,36840.00
3685,22636,36850.00
3686,22668,36860.00
3687,22708,36870.00
3688,22724,36880.00
3689,22512,36890.00
3690,22148,36900.00
3691,21952,36910.00
3692,21964,36920.00
3693,22028,36930.00
3694,22084,36940.00
3695,22160,36950.00
3696,22208,36960.00
3697,22224,36970.00
3698,22224,36980.00
3699,22248,36990.00
3700,22300,37000.00
3701,22372,37010.00
3702,22436,37020.00
3703,22492,37030.00
3704,22540,37040.00
3705,22580,37050.00
3706,22620,37060.00
3707,22656,37070.00
3708,22696,37080.00
3709,22748,37090.00
3710,22716,37100.00
3711,22396,37110.00
3712,22032,37120.00
3713,21904,37130.00
3714,21932,37140.00
3715,21972,37150.00
3716,22016,37160.00
3717,22084,37170.00
3718,22132,37180.00
3719,22136,37190.00
3720,22144,37200.00
3721,22180,37210.00
3722,22248,37220.00
3723,22316,37230.00
3724,22388,37240.00
3725,22444,37250.00
3726,22492,37260.00
3727,22528,37270.00
3728,22564,37280.00
3729,22604,37290.00
3730,22652,37300.00
3731,22696,37310.00
3732,22736,37320.00
3733,22780,37330.00
3734,22808,37340.00
3735,22604,37350.00
3736,22176,37360.00
3737,21904,37370.00
3738,21880,37380.00
3739,21936,37390.00
3740,21972,37400.00
3741,22028,37410.00
3742,22096,37420.00
3743,22124,37430.00
3744,22124,37440.00
3745,22144,37450.00
3746,22192,37460.00
3747,22256,37470.00
3748,22320,37480.00
3749,22376,37490.00
3750,22424,37500.00
3751,22460,37510.00
3752,22492,37520.00
3753,22528,37530.00
3754,22572,37540.00
3755,22616,37550.00
3756,22660,37560.00
3757,22712,37570.00
3758,22740,37580.00
3759,22536,37590.00
3760,22140,37600.00
3761,21908,37610.00
3762,21912,37620.00
3763,21980,37630.00
3764,22028,37640.00
3765,22100,37650.00
3766,22140,37660.00
3767,22148,37670.00
3768,22140,37680.00
3769,22160,37690.00
3770,22208,37700.00
3771,22280,37710.00
3772,22352,37720.00
3773,22408,37730.00
3774,22460,37740.00
3775,22500,37750.00
3776,22540,37760.00
3777,22580,37770.00
3778,22620,37780.00
3779,22656,37790.00
3780,22704,37800.00
3781,22692,37810.00
3782,22404,37820.00
3783,22020,37830.00
3784,21860,37840.00
3785,21884,37850.00
3786,21948,37860.00
3787,22008,37870.00
3788,22084,37880.00
3789,22132,37890.00
3790,22136,37900.00
3791,22148,37910.00
3792,22180,37920.00
3793,22240,37930.00
3794,22308,37940.00
3795,22372,37950.00
3796,22424,37960.00
3797,22468,37970.00
3798,22492,37980.00
3799,22528,37990.00
3800,22564,38000.00
3801,22608,38010.00
3802,22648,38020.00
3803,22696,38030.00
3804,22752,38040.00
3805,22772,38050.00
3806,22548,38060.00
3807,22116,38070.00
3808,21864,38080.00
3809,21844,38090.00
3810,21896,38100.00
3811,21936,38110.00
3812,22000,38120.00
3813,22064,38130.00
3814,22088,38140.00
3815,22092,38150.00
3816,22116,38160.00
3817,22164,38170.00
3818,22236,38180.00
3819,22308,38190.00
3820,22368,38200.00
3821,22420,38210.00
3822,22468,38220.00
3823,22508,38230.00
3824,22548,38240.00
3825,22596,38250.00
3826,22648,38260.00
3827,22704,38270.00
3828,22756,38280.00
3829,22804,38290.00
3830,22852,38300.00
3831,22892,38310.00
3832,22768,38320.00
3833,22352,38330.00
3834,22000,38340.00
3835,21920,38350.00
3836,21976,38360.00
3837,22028,38370.00
3838,22084,38380.00
3839,22148,38390.00
3840,22180,38400.00
3841,22184,38410.00
3842,22192,38420.00
3843,22232,38430.00
3844,22296,38440.00
3845,22372,38450.00
3846,22432,38460.00
3847,22480,38470.00
3848,22520,38480.00
3849,22560,38490.00
3850,22596,38500.00
3851,22644,38510.00
3852,22688,38520.00
3853,22732,38530.00
3854,22784,38540.00
3855,22844,38550.00
3856,22872,38560.00
3857,22648,38570.00
3858,22240,38580.00
3859,22004,38590.00
3860,22012,38600.00
3861,22084,38610.00
3862,22148,38620.00
3863,22224,38630.00
3864,22276,38640.00
3865,22288,38650.00
3866,22272,38660.00
3867,22292,38670.00
3868,22356,38680.00
3869,22428,38690.00
3870,22508,38700.00
3871,22580,38710.00
3872,22636,38720.00
3873,22680,38730.00
3874,22720,38740.00
3875,22768,38750.00
3876,22812,38760.00
3877,22856,38770.00
3878,22900,38780.00
3879,22948,38790.00
3880,22996,38800.00
3881,23020,38810.00
3882,22792,38820.00
3883,22352,38830.00
3884,22048,38840.00
3885,22008,38850.00
3886,22076,38860.00
3887,22136,38870.00
3888,22208,38880.00
3889,22268,38890.00
3890,22300,38900.00
3891,22300,38910.00
3892,22304,38920.00
3893,22348,38930.00
3894,22416,38940.00
3895,22496,38950.00
3896,22556,38960.00
3897,22612,38970.00
3898,22664,38980.00
3899,22708,38990.00
3900,22752,39000.00
3901,22804,39010.00
3902,22860,39020.00
3903,22912,39030.00
3904,22968,39040.00
3905,23024,39050.00
3906,23076,39060.00
3907,23120,39070.00
3908,22960,39080.00
3909,22520,39090.00
3910,22140,39100.00
3911,22040,39110.00
3912,22088,39120.00
3913,22148,39130.00
3914,22208,39140.00
3915,22272,39150.00
3916,22312,39160.00
3917,22316,39170.00
3918,22328,39180.00
3919,22368,39190.00
3920,22432,39200.00
3921,22516,39210.00
3922,22588,39220.00
3923,22640,39230.00
3924,22684,39240.00
3925,22728,39250.00
3926,22776,39260.00
3927,22824,39270.00
3928,22876,39280.00
3929,22932,39290.00
3930,22984,39300.00
3931,23036,39310.00
3932,23092,39320.00
3933,23104,39330.00
3934,22848,39340.00
3935,22420,39350.00
3936,22164,39360.00
3937,22152,39370.00
3938,22224,39380.00
3939,22292,39390.00
3940,22364,39400.00
3941,22404,39410.00
3942,22392,39420.00
3943,22376,39430.00
3944,22396,39440.00
3945,22452,39450.00
3946,22528,39460.00
3947,22604,39470.00
3948,22676,39480.00
3949,22728,39490.00
3950,22772,39500.00
3951,22816,39510.00
3952,22856,39520.00
3953,22896,39530.00
3954,22936,39540.00
3955,22980,39550.00
3956,22992,39560.00
3957,22740,39570.00
3958,22324,39580.00
3959,22092,39590.00
3960,22088,39600.00
3961,22156,39610.00
3962,22224,39620.00
3963,22304,39630.00
3964,22348,39640.00
3965,22356,39650.00
3966,22352,39660.00
3967,22380,39670.00
3968,22436,39680.00
3969,22508,39690.00
3970,22576,39700.00
3971,22640,39710.00
3972,22692,39720.00
3973,22728,39730.00
3974,22772,39740.00
3975,22816,39750.00
3976,22860,39760.00
3977,22908,39770.00
3978,22964,39780.00
3979,22976,39790.00
3980,22724,39800.00
3981,22300,39810.00
3982,22056,39820.00
3983,22044,39830.00
3984,22104,39840.00
3985,22144,39850.00
3986,22204,39860.00
3987,22260,39870.00
3988,22284,39880.00
3989,22280,39890.00
3990,22300,39900.00
3991,22352,39910.00
3992,22424,39920.00
3993,22500,39930.00
3994,22568,39940.00
3995,22628,39950.00
3996,22672,39960.00
3997,22716,39970.00
3998,22760,39980.00
3999,22808,39990.00
4000,22856,40000.00
4001,22900,40010.00
4002,22944,40020.00
4003,22996,40030.00
4004,22900,40040.00
4005,22512,40050.00
4006,22128,40060.00
4007,22020,40070.00
4008,22068,40080.00
4009,22120,40090.00
4010,22172,40100.00
4011,22248,40110.00
4012,22272,40120.00
4013,22272,40130.00
4014,22272,40140.00
4015,22304,40150.00
4016,22352,40160.00
4017,22404,40170.00
4018,22456,40180.00
4019,22500,40190.00
4020,22532,40200.00
4021,22560,40210.00
4022,22588,40220.00
4023,22632,40230.00
4024,22676,40240.00
4025,22720,40250.00
4026,22764,40260.00
4027,22824,40270.00
4028,22784,40280.00
4029,22456,40290.00
4030,22076,40300.00
4031,21948,40310.00
4032,21992,40320.00
4033,22056,40330.00
4034,22120,40340.00
4035,22184,40350.00
4036,22216,40360.00
4037,22212,40370.00
4038,22212,40380.00
4039,22252,40390.00
4040,22324,40400.00
4041,22400,40410.00
4042,22476,40420.00
4043,22540,40430.00
4044,22592,40440.00
4045,22640,40450.00
4046,22680,40460.00
4047,22720,40470.00
4048,22764,40480.00
4049,22808,40490.00
4050,22856,40500.00
4051,22904,40510.00
4052,22828,40520.00
4053,22448,40530.00
4054,22044,40540.00
4055,21884,40550.00
4056,21904,40560.00
4057,21936,40570.00
4058,21968,40580.00
4059,22008,40590.00
4060,22032,40600.00
4061,22020,40610.00
4062,22024,40620.00
4063,22068,40630.00
4064,22132,40640.00
4065,22212,40650.00
4066,22280,40660.00
4067,22336,40670.00
4068,22388,40680.00
4069,22424,40690.00
4070,22464,40700.00
4071,22508,40710.00
4072,22556,40720.00
4073,22620,40730.00
4074,22684,40740.00
4075,22748,40750.00
4076,22652,40760.00
4077,22268,40770.00
4078,21932,40780.00
4079,21868,40790.00
4080,21932,40800.00
4081,21996,40810.00
4082,22068,40820.00
4083,22156,40830.00
4084,22208,40840.00
4085,22212,40850.00
4086,22216,40860.00
4087,22264,40870.00
4088,22336,40880.00
4089,22424,40890.00
4090,22508,40900.00
4091,22580,40910.00
4092,22628,40920.00
4093,22664,40930.00
4094,22696,40940.00
4095,22736,40950.00
4096,22788,40960.00
4097,22756,40970.00
4098,22452,40980.00
4099,22100,40990.00
4100,21980,41000.00
4101,22032,41010.00
4102,22104,41020.00
4103,22188,41030.00
4104,22272,41040.00
4105,22308,41050.00
4106,22296,41060.00
4107,22296,41070.00
4108,22324,41080.00
4109,22380,41090.00
4110,22448,41100.00
4111,22512,41110.00
4112,22560,41120.00
4113,22592,41130.00
4114,22612,41140.00
4115,22644,41150.00
4116,22688,41160.00
4117,22696,41170.00
4118,22468,41180.00
4119,22092,41190.00
4120,21896,41200.00
4121,21912,41210.00
4122,21988,41220.00
4123,22048,41230.00
4124,22124,41240.00
4125,22184,41250.00
4126,22192,41260.00
4127,22196,41270.00
4128,22220,41280.00
4129,22280,41290.00
4130,22352,41300.00
4131,22428,41310.00
4132,22488,41320.00
4133,22536,41330.00
4134,22576,41340.00
4135,22620,41350.00
4136,22664,41360.00
4137,22712,41370.00
4138,22760,41380.00
4139,22812,41390.00
4140,22868,41400.00
4141,22856,41410.00
4142,22548,41420.00
4143,22112,41430.00
4144,21920,41440.00
4145,21948,41450.00
4146,22008,41460.00
4147,22052,41470.00
4148,22124,41480.00
4149,22188,41490.00
4150,22208,41500.00
4151,22216,41510.00
4152,22248,41520.00
4153,22316,41530.00
4154,22400,41540.00
4155,22484,41550.00
4156,22552,41560.00
4157,22608,41570.00
4158,22656,41580.00
4159,22696,41590.00
4160,22744,41600.00
4161,22792,41610.00
4162,22840,41620.00
4163,22892,41630.00
4164,22940,41640.00
4165,22996,41650.00
4166,23060,41660.00
4167,23056,41670.00
4168,22760,41680.00
4169,22300,41690.00
4170,22044,41700.00
4171,22048,41710.00
4172,22124,41720.00
4173,22184,41730.00
4174,22252,41740.00
4175,22312,41750.00
4176,22340,41760.00
4177,22348,41770.00
4178,22368,41780.00
4179,22416,41790.00
4180,22484,41800.00
4181,22568,41810.00
4182,22636,41820.00
4183,22692,41830.00
4184,22752,41840.00
4185,22800,41850.00
4186,22860,41860.00
4187,22912,41870.00
4188,22968,41880.00
4189,23032,41890.00
4190,23092,41900.00
4191,23144,41910.00
4192,23200,41920.00
4193,23220,41930.00
4194,22972,41940.00
4195,22516,41950.00
4196,22204,41960.00
4197,22160,41970.00
4198,22228,41980.00
4199,22296,41990.00
4200,22376,42000.00
4201,22432,42010.00
4202,22448,42020.00
4203,22436,42030.00
4204,22452,42040.00
4205,22504,42050.00
4206,22576,42060.00
4207,22656,42070.00
4208,22732,42080.00
4209,22796,42090.00
4210,22844,42100.00
4211,22888,42110.00
4212,22932,42120.00
4213,22988,42130.00
4214,23036,42140.00
4215,23088,42150.00
4216,23144,42160.00
4217,23172,42170.00
4218,22956,42180.00
4219,22540,42190.00
4220,22260,42200.00
4221,22232,42210.00
4222,22300,42220.00
4223,22384,42230.00
4224,22476,42240.00
4225,22528,42250.00
4226,22532,42260.00
4227,22516,42270.00
4228,22532,42280.00
4229,22592,42290.00
4230,22664,42300.00
4231,22744,42310.00
4232,22824,42320.00
4233,22888,42330.00
4234,22944,42340.00
4235,23000,42350.00
4236,23044,42360.00
4237,23100,42370.00
4238,23148,42380.00
4239,23196,42390.00
4240,23256,42400.00
4241,23260,42410.00
4242,22984,42420.00
4243,22540,42430.00
4244,22260,42440.00
4245,22240,42450.00
4246,22312,42460.00
4247,22384,42470.00
4248,22460,42480.00
4249,22516,42490.00
4250,22532,42500.00
4251,22528,42510.00
4252,22552,42520.00
4253,22612,42530.00
4254,22684,42540.00
4255,22764,42550.00
4256,22836,42560.00
4257,22896,42570.00
4258,22948,42580.00
4259,22988,42590.00
4260,23032,42600.00
4261,23076,42610.00
4262,23116,42620.00
4263,23164,42630.00
4264,23212,42640.00
4265,23108,42650.00
4266,22708,42660.00
4267,22316,42670.00
4268,22184,42680.00
4269,22228,42690.00
4270,22300,42700.00
4271,22364,42710.00
4272,22432,42720.00
4273,22464,42730.00
4274,22452,42740.00
4275,22448,42750.00
4276,22480,42760.00
4277,22548,42770.00
4278,22624,42780.00
4279,22700,42790.00
4280,22764,42800.00
4281,22816,42810.00
4282,22860,42820.00
4283,22900,42830.00
4284,22944,42840.00
4285,22984,42850.00
4286,23028,42860.00
4287,23072,42870.00
4288,23072,42880.00
4289,22792,42890.00
4290,22356,42900.00
4291,22120,42910.00
4292,22112,42920.00
4293,22180,42930.00
4294,22236,42940.00
4295,22304,42950.00
4296,22340,42960.00
4297,22344,42970.00
4298,22332,42980.00
4299,22352,42990.00
4300,22412,43000.00
4301,22480,43010.00
4302,22552,43020.00
4303,22608,43030.00
4304,22652,43040.00
4305,22688,43050.00
4306,22720,43060.00
4307,22748,43070.00
4308,22780,43080.00
4309,22828,43090.00
4310,22796,43100.00
4311,22484,43110.00
4312,22120,43120.00
4313,21984,43130.00
4314,22028,43140.00
4315,22104,43150.00
4316,22188,43160.00
4317,22256,43170.00
4318,22280,43180.00
4319,22260,43190.00
4320,22268,43200.00
4321,22308,43210.00
4322,22376,43220.00
4323,22444,43230.00
4324,22504,43240.00
4325,22560,43250.00
4326,22624,43260.00
4327,22696,43270.00
4328,22740,43280.00
4329,22776,43290.00
4330,22824,43300.00
4331,22860,43310.00
4332,22760,43320.00
4333,22384,43330.00
4334,22000,43340.00
4335,21868,43350.00
4336,21904,43360.00
4337,21936,43370.00
4338,21968,43380.00
4339,22004,43390.00
4340,22020,43400.00
4341,22004,43410.00
4342,22004,43420.00
4343,22044,43430.00
4344,22112,43440.00
4345,22192,43450.00
4346,22252,43460.00
4347,22312,43470.00
4348,22360,43480.00
4349,22404,43490.00
4350,22452,43500.00
4351,22500,43510.00
4352,22544,43520.00
4353,22596,43530.00
4354,22652,43540.00
4355,22608,43550.00
4356,22256,43560.00
4357,21852,43570.00
4358,21716,43580.00
4359,21756,43590.00
4360,21804,43600.00
4361,21852,43610.00
4362,21936,43620.00
4363,21996,43630.00
4364,22012,43640.00
4365,22024,43650.00
4366,22068,43660.00
4367,22140,43670.00
4368,22212,43680.00
4369,22280,43690.00
4370,22340,43700.00
4371,22388,43710.00
4372,22424,43720.00
4373,22464,43730.00
4374,22500,43740.00
4375,22548,43750.00
4376,22592,43760.00
4377,22636,43770.00
4378,22684,43780.00
4379,22732,43790.00
4380,22588,43800.00
4381,22164,43810.00
4382,21844,43820.00
4383,21804,43830.00
4384,21872,43840.00
4385,21920,43850.00
4386,21988,43860.00
4387,22060,43870.00
4388,22084,43880.00
4389,22080,43890.00
4390,22088,43900.00
4391,22136,43910.00
4392,22208,43920.00
4393,22288,43930.00
4394,22344,43940.00
4395,22400,43950.00
4396,22444,43960.00
4397,22488,43970.00
4398,22532,43980.00
4399,22584,43990.00
4400,22632,44000.00
4401,22672,44010.00
4402,22720,44020.00
4403,22776,44030.00
4404,22720,44040.00
4405,22364,44050.00
4406,21972,44060.00
4407,21844,44070.00
4408,21900,44080.00
4409,21968,44090.00
4410,22032,44100.00
4411,22112,44110.00
4412,22152,44120.00
4413,22152,44130.00
4414,22156,44140.00
4415,22200,44150.00
4416,22272,44160.00
4417,22352,44170.00
4418,22424,44180.00
4419,22484,44190.00
4420,22528,44200.00
4421,22564,44210.00
4422,22600,44220.00
4423,22640,44230.00
4424,22688,44240.00
4425,22740,44250.00
4426,22788,44260.00
4427,22836,44270.00
4428,22888,44280.00
4429,22940,44290.00
4430,22816,44300.00
4431,22384,44310.00
4432,21988,44320.00
4433,21884,44330.00
4434,21948,44340.00
4435,22016,44350.00
4436,22076,44360.00
4437,22144,44370.00
4438,22172,44380.00
4439,22168,44390.00
4440,22168,44400.00
4441,22204,44410.00
4442,22268,44420.00
4443,22344,44430.00
4444,22420,44440.00
4445,22484,44450.00
4446,22532,44460.00
4447,22580,44470.00
4448,22628,44480.00
4449,22676,44490.00
4450,22728,44500.00
4451,22780,44510.00
4452,22832,44520.00
4453,22888,44530.00
4454,22940,44540.00
4455,22976,44550.00
4456,22816,44560.00
4457,22364,44570.00
4458,21968,44580.00
4459,21868,44590.00
4460,21932,44600.00
4461,22004,44610.00
4462,22072,44620.00
4463,22148,44630.00
4464,22184,44640.00
4465,22192,44650.00
4466,22204,44660.00
4467,22240,44670.00
4468,22316,44680.00
4469,22392,44690.00
4470,22468,44700.00
4471,22524,44710.00
4472,22580,44720.00
4473,22628,44730.00
4474,22672,44740.00
4475,22720,44750.00
4476,22772,44760.00
4477,22832,44770.00
4478,22892,44780.00
4479,22960,44790.00
4480,23024,44800.00
4481,23084,44810.00
4482,23012,44820.00
4483,22624,44830.00
4484,22180,44840.00
4485,21992,44850.00
4486,22016,44860.00
4487,22084,44870.00
4488,22148,44880.00
4489,22220,44890.00
4490,22256,44900.00
4491,22248,44910.00
4492,22252,44920.00
4493,22280,44930.00
4494,22340,44940.00
4495,22420,44950.00
4496,22500,44960.00
4497,22564,44970.00
4498,22616,44980.00
4499,22664,44990.00
4500,22708,45000.00
4501,22752,45010.00
4502,22796,45020.00
4503,22836,45030.00
4504,22880,45040.00
4505,22932,45050.00
4506,22940,45060.00
4507,22684,45070.00
4508,22264,45080.00
4509,22016,45090.00
4510,22016,45100.00
4511,22104,45110.00
4512,22192,45120.00
4513,22280,45130.00
4514,22324,45140.00
4515,22320,45150.00
4516,22308,45160.00
4517,22324,45170.00
4518,22376,45180.00
4519,22452,45190.00
4520,22528,45200.00
4521,22596,45210.00
4522,22652,45220.00
4523,22700,45230.00
4524,22752,45240.00
4525,22804,45250.00
4526,22856,45260.00
4527,22912,45270.00
4528,22976,45280.00
4529,23024,45290.00
4530,22852,45300.00
4531,22440,45310.00
4532,22120,45320.00
4533,22056,45330.00
4534,22112,45340.00
4535,22172,45350.00
4536,22232,45360.00
4537,22272,45370.00
4538,22268,45380.00
4539,22256,45390.00
4540,22264,45400.00
4541,22312,45410.00
4542,22388,45420.00
4543,22472,45430.00
4544,22544,45440.00
4545,22604,45450.00
4546,22652,45460.00
4547,22696,45470.00
4548,22740,45480.00
4549,22780,45490.00
4550,22820,45500.00
4551,22872,45510.00
4552,22916,45520.00
4553,22964,45530.00
4554,22820,45540.00
4555,22396,45550.00
4556,22028,45560.00
4557,21928,45570.00
4558,21992,45580.00
4559,22056,45590.00
4560,22128,45600.00
4561,22188,45610.00
4562,22220,45620.00
4563,22216,45630.00
4564,22212,45640.00
4565,22252,45650.00
4566,22312,45660.00
4567,22388,45670.00
4568,22452,45680.00
4569,22504,45690.00
4570,22548,45700.00
4571,22584,45710.00
4572,22612,45720.00
4573,22644,45730.00
4574,22672,45740.00
4575,22696,45750.00
4576,22716,45760.00
4577,22736,45770.00
4578,22756,45780.00
4579,22700,45790.00
4580,22336,45800.00
4581,21864,45810.00
4582,21648,45820.00
4583,21660,45830.00
4584,21740,45840.00
4585,21812,45850.00
4586,21904,45860.00
4587,21976,45870.00
4588,22012,45880.00
4589,22040,45890.00
4590,22100,45900.00
4591,22184,45910.00
4592,22296,45920.00
4593,22444,45930.00
4594,22572,45940.00
4595,22652,45950.00
4596,22704,45960.00
4597,22756,45970.00
4598,22808,45980.00
4599,22856,45990.00
4600,22900,46000.00
4601,22956,46010.00
4602,23008,46020.00
4603,23060,46030.00
4604,23132,46040.00
4605,23116,46050.00
4606,22816,46060.00
4607,22408,46070.00
4608,22176,46080.00
4609,22180,46090.00
4610,22252,46100.00
4611,22320,46110.00
4612,22400,46120.00
4613,22440,46130.00
4614,22440,46140.00
4615,22436,46150.00
4616,22452,46160.00
4617,22508,46170.00
4618,22588,46180.00
4619,22664,46190.00
4620,22728,46200.00
4621,22788,46210.00
4622,22832,46220.00
4623,22880,46230.00
4624,22928,46240.00
4625,22976,46250.00
4626,23032,46260.00
4627,23092,46270.00
4628,23076,46280.00
4629,22788,46290.00
4630,22404,46300.00
4631,22216,46310.00
4632,22232,46320.00
4633,22300,46330.00
4634,22376,46340.00
4635,22456,46350.00
4636,22496,46360.00
4637,22492,46370.00
4638,22492,46380.00
4639,22536,46390.00
4640,22604,46400.00
4641,22684,46410.00
4642,22760,46420.00
4643,22832,46430.00
4644,22884,46440.00
4645,22928,46450.00
4646,22972,46460.00
4647,23024,46470.00
4648,23072,46480.00
4649,23120,46490.00
4650,23176,46500.00
4651,23232,46510.00
4652,23116,46520.00
4653,22724,46530.00
4654,22348,46540.00
4655,22216,46550.00
4656,22248,46560.00
4657,22296,46570.00
4658,22352,46580.00
4659,22416,46590.00
4660,22448,46600.00
4661,22444,46610.00
4662,22448,46620.00
4663,22480,46630.00
4664,22520,46640.00
4665,22576,46650.00
4666,22636,46660.00
4667,22704,46670.00
4668,22784,46680.00
4669,22836,46690.00
4670,22868,46700.00
4671,22896,46710.00
4672,22932,46720.00
4673,22964,46730.00
4674,22988,46740.00
4675,23020,46750.00
4676,23044,46760.00
4677,22912,46770.00
4678,22484,46780.00
4679,22072,46790.00
4680,21920,46800.00
4681,21960,46810.00
4682,22056,46820.00
4683,22132,46830.00
4684,22224,46840.00
4685,22272,46850.00
4686,22280,46860.00
4687,22288,46870.00
4688,22308,46880.00
4689,22364,46890.00
4690,22424,46900.00
4691,22480,46910.00
4692,22520,46920.00
4693,22556,46930.00
4694,22580,46940.00
4695,22604,46950.00
4696,22644,46960.00
4697,22688,46970.00
4698,22740,46980.00
4699,22796,46990.00
4700,22816,47000.00
4701,22584,47010.00
4702,22172,47020.00
4703,21908,47030.00
4704,21904,47040.00
4705,21984,47050.00
4706,22056,47060.00
4707,22128,47070.00
4708,22176,47080.00
4709,22176,47090.00
4710,22176,47100.00
4711,22180,47110.00
4712,22208,47120.00
4713,22272,47130.00
4714,22348,47140.00
4715,22416,47150.00
4716,22480,47160.00
4717,22536,47170.00
4718,22592,47180.00
4719,22644,47190.00
4720,22712,47200.00
4721,22792,47210.00
4722,22724,47220.00
4723,22372,47230.00
4724,22028,47240.00
4725,21924,47250.00
4726,21976,47260.00
4727,22064,47270.00
4728,22156,47280.00
4729,22236,47290.00
4730,22264,47300.00
4731,22256,47310.00
4732,22264,47320.00
4733,22320,47330.00
4734,22412,47340.00
4735,22496,47350.00
4736,22572,47360.00
4737,22640,47370.00
4738,22684,47380.00
4739,22728,47390.00
4740,22780,47400.00
4741,22808,47410.00
4742,22572,47420.00
4743,22168,47430.00
4744,21948,47440.00
4745,21972,47450.00
4746,22060,47460.00
4747,22140,47470.00
4748,22212,47480.00
4749,22264,47490.00
4750,22268,47500.00
4751,22260,47510.00
4752,22288,47520.00
4753,22348,47530.00
4754,22420,47540.00
4755,22496,47550.00
4756,22560,47560.00
4757,22620,47570.00
4758,22664,47580.00
4759,22708,47590.00
4760,22756,47600.00
4761,22732,47610.00
4762,22408,47620.00
4763,21996,47630.00
4764,21840,47640.00
4765,21896,47650.00
4766,21988,47660.00
4767,22056,47670.00
4768,22144,47680.00
4769,22192,47690.00
4770,22204,47700.00
4771,22204,47710.00
4772,22244,47720.00
4773,22312,47730.00
4774,22392,47740.00
4775,22476,47750.00
4776,22548,47760.00
4777,22608,47770.00
4778,22660,47780.00
4779,22708,47790.00
4780,22756,47800.00
4781,22748,47810.00
4782,22456,47820.00
4783,22032,47830.00
4784,21856,47840.00
4785,21904,47850.00
4786,22000,47860.00
4787,22072,47870.00
4788,22148,47880.00
4789,22204,47890.00
4790,22220,47900.00
4791,22228,47910.00
4792,22284,47920.00
4793,22360,47930.00
4794,22456,47940.00
4795,22536,47950.00
4796,22612,47960.00
4797,22668,47970.00
4798,22716,47980.00
4799,22760,47990.00
4800,22796,48000.00
4801,22816,48010.00
4802,22588,48020.00
4803,22160,48030.00
4804,21912,48040.00
4805,21932,48050.00
4806,22016,48060.00
4807,22096,48070.00
4808,22188,48080.00
4809,22244,48090.00
4810,22256,48100.00
4811,22260,48110.00
4812,22304,48120.00
4813,22380,48130.00
4814,22460,48140.00
4815,22536,48150.00
4816,22600,48160.00
4817,22648,48170.00
4818,22692,48180.00
4819,22740,48190.00
4820,22768,48200.00
4821,22564,48210.00
4822,22176,48220.00
4823,21972,48230.00
4824,21988,48240.00
4825,22068,48250.00
4826,22168,48260.00
4827,22260,48270.00
4828,22304,48280.00
4829,22288,48290.00
4830,22284,48300.00
4831,22324,48310.00
4832,22392,48320.00
4833,22460,48330.00
4834,22528,48340.00
4835,22584,48350.00
4836,22632,48360.00
4837,22676,48370.00
4838,22720,48380.00
4839,22596,48390.00
4840,22212,48400.00
4841,21924,48410.00
4842,21892,48420.00
4843,21976,48430.00
4844,22060,48440.00
4845,22144,48450.00
4846,22200,48460.00
4847,22212,48470.00
4848,22204,48480.00
4849,22224,48490.00
4850,22280,48500.00
4851,22360,48510.00
4852,22432,48520.00
4853,22492,48530.00
4854,22548,48540.00
4855,22600,48550.00
4856,22648,48560.00
4857,22700,48570.00
4858,22596,48580.00
4859,22208,48590.00
4860,21896,48600.00
4861,21864,48610.00
4862,21948,48620.00
4863,22016,48630.00
4864,22096,48640.00
4865,22152,48650.00
4866,22168,48660.00
4867,22160,48670.00
4868,22184,48680.00
4869,22240,48690.00
4870,22300,48700.00
4871,22372,48710.00
4872,22440,48720.00
4873,22500,48730.00
4874,22556,48740.00
4875,22600,48750.00
4876,22636,48760.00
4877,22688,48770.00
4878,22736,48780.00
4879,22792,48790.00
4880,22808,48800.00
4881,22548,48810.00
4882,22108,48820.00
4883,21888,48830.00
4884,21920,48840.00
4885,22008,48850.00
4886,22080,48860.00
4887,22160,48870.00
4888,22196,48880.00
4889,22204,48890.00
4890,22212,48900.00
4891,22248,48910.00
4892,22308,48920.00
4893,22384,48930.00
4894,22452,48940.00
4895,22508,48950.00
4896,22560,48960.00
4897,22604,48970.00
4898,22644,48980.00
4899,22680,48990.00
4900,22732,49000.00
4901,22788,49010.00
4902,22732,49020.00
4903,22380,49030.00
4904,22036,49040.00
4905,21968,49050.00
4906,22052,49060.00
4907,22152,49070.00
4908,22244,49080.00
4909,22300,49090.00
4910,22296,49100.00
4911,22280,49110.00
4912,22296,49120.00
4913,22348,49130.00
4914,22420,49140.00
4915,22500,49150.00
4916,22568,49160.00
4917,22620,49170.00
4918,22668,49180.00
4919,22712,49190.00
4920,22756,49200.00
4921,22804,49210.00
4922,22764,49220.00
4923,22452,49230.00
4924,22100,49240.00
4925,22008,49250.00
4926,22076,49260.00
4927,22172,49270.00
4928,22268,49280.00
4929,22328,49290.00
4930,22336,49300.00
4931,22336,49310.00
4932,22348,49320.00
4933,22404,49330.00
4934,22480,49340.00
4935,22556,49350.00
4936,22628,49360.00
4937,22688,49370.00
4938,22740,49380.00
4939,22776,49390.00
4940,22804,49400.00
4941,22828,49410.00
4942,22848,49420.00
4943,22668,49430.00
4944,22260,49440.00
4945,22012,49450.00
4946,22016,49460.00
4947,22112,49470.00
4948,22188,49480.00
4949,22272,49490.00
4950,22332,49500.00
4951,22340,49510.00
4952,22344,49520.00
4953,22376,49530.00
4954,22436,49540.00
4955,22508,49550.00
4956,22572,49560.00
4957,22632,49570.00
4958,22684,49580.00
4959,22728,49590.00
4960,22768,49600.00
4961,22808,49610.00
4962,22856,49620.00
4963,22896,49630.00
4964,22744,49640.00
4965,22356,49650.00
4966,22100,49660.00
4967,22080,49670.00
4968,22152,49680.00
4969,22220,49690.00
4970,22292,49700.00
4971,22328,49710.00
4972,22328,49720.00
4973,22332,49730.00
4974,22356,49740.00
4975,22408,49750.00
4976,22480,49760.00
4977,22556,49770.00
4978,22620,49780.00
4979,22684,49790.00
4980,22728,49800.00
4981,22772,49810.00
4982,22812,49820.00
4983,22852,49830.00
4984,22824,49840.00
4985,22536,49850.00
4986,22184,49860.00
4987,22064,49870.00
4988,22120,49880.00
4989,22188,49890.00
4990,22260,49900.00
4991,22316,49910.00
4992,22332,49920.00
4993,22320,49930.00
4994,22332,49940.00
4995,22380,49950.00
4996,22460,49960.00
4997,22528,49970.00
4998,22584,49980.00
4999,22624,49990.00
5000,22664,50000.00
5001,22700,50010.00
5002,22732,50020.00
5003,22744,50030.00
5004,22536,50040.00
5005,22184,50050.00
5006,22008,50060.00
5007,22044,50070.00
5008,22140,50080.00
5009,22236,50090.00
5010,22332,50100.00
5011,22376,50110.00
5012,22372,50120.00
5013,22376,50130.00
5014,22416,50140.00
5015,22480,50150.00
5016,22540,50160.00
5017,22600,50170.00
5018,22644,50180.00
5019,22684,50190.00
5020,22728,50200.00
5021,22684,50210.00
5022,22396,50220.00
5023,22100,50230.00
5024,22032,50240.00
5025,22100,50250.00
5026,22204,50260.00
5027,22300,50270.00
5028,22344,50280.00
5029,22328,50290.00
5030,22312,50300.00
5031,22324,50310.00
5032,22364,50320.00
5033,22428,50330.00
5034,22496,50340.00
5035,22548,50350.00
5036,22592,50360.00
5037,22624,50370.00
5038,22612,50380.00
5039,22352,50390.00
5040,22004,50400.00
5041,21884,50410.00
5042,21932,50420.00
5043,22016,50430.00
5044,22112,50440.00
5045,22216,50450.00
5046,22276,50460.00
5047,22288,50470.00
5048,22308,50480.00
5049,22364,50490.00
5050,22452,50500.00
5051,22524,50510.00
5052,22596,50520.00
5053,22652,50530.00
5054,22696,50540.00
5055,22744,50550.00
5056,22736,50560.00
5057,22464,50570.00
5058,22096,50580.00
5059,21976,50590.00
5060,22028,50600.00
5061,22092,50610.00
5062,22156,50620.00
5063,22228,50630.00
5064,22256,50640.00
5065,22264,50650.00
5066,22280,50660.00
5067,22328,50670.00
5068,22392,50680.00
5069,22472,50690.00
5070,22536,50700.00
5071,22588,50710.00
5072,22624,50720.00
5073,22664,50730.00
5074,22696,50740.00
5075,22736,50750.00
5076,22664,50760.00
5077,22312,50770.00
5078,21992,50780.00
5079,21948,50790.00
5080,22028,50800.00
5081,22104,50810.00
5082,22180,50820.00
5083,22252,50830.00
5084,22280,50840.00
5085,22284,50850.00
5086,22304,50860.00
5087,22364,50870.00
5088,22444,50880.00
5089,22524,50890.00
5090,22592,50900.00
5091,22648,50910.00
5092,22704,50920.00
5093,22756,50930.00
5094,22796,50940.00
5095,22840,50950.00
5096,22880,50960.00
5097,22920,50970.00
5098,22964,50980.00
5099,23000,50990.00
5100,23032,51000.00
5101,23044,51010.00
5102,22820,51020.00
5103,22348,51030.00
5104,22072,51040.00
5105,22076,51050.00
5106,22172,51060.00
5107,22252,51070.00
5108,22320,51080.00
5109,22356,51090.00
5110,22360,51100.00
5111,22368,51110.00
5112,22396,51120.00
5113,22460,51130.00
5114,22544,51140.00
5115,22620,51150.00
5116,22692,51160.00
5117,22752,51170.00
5118,22808,51180.00
5119,22860,51190.00
5120,22892,51200.00
5121,22940,51210.00
5122,22992,51220.00
5123,23036,51230.00
5124,23084,51240.00
5125,23128,51250.00
5126,23040,51260.00
5127,22644,51270.00
5128,22252,51280.00
5129,22152,51290.00
5130,22224,51300.00
5131,22316,51310.00
5132,22400,51320.00
5133,22464,51330.00
5134,22480,51340.00
5135,22468,51350.00
5136,22480,51360.00
5137,22532,51370.00
5138,22604,51380.00
5139,22672,51390.00
5140,22740,51400.00
5141,22804,51410.00
5142,22856,51420.00
5143,22896,51430.00
5144,22936,51440.00
5145,22976,51450.00
5146,23012,51460.00
5147,23044,51470.00
5148,23068,51480.00
5149,23084,51490.00
5150,23000,51500.00
5151,22596,51510.00
5152,22140,51520.00
5153,21972,51530.00
5154,22004,51540.00
5155,22060,51550.00
5156,22108,51560.00
5157,22136,51570.00
5158,22120,51580.00
5159,22092,51590.00
5160,22096,51600.00
5161,22144,51610.00
5162,22212,51620.00
5163,22284,51630.00
5164,22344,51640.00
5165,22400,51650.00
5166,22448,51660.00
5167,22504,51670.00
5168,22572,51680.00
5169,22656,51690.00
5170,22748,51700.00
5171,22852,51710.00
5172,22964,51720.00
5173,22980,51730.00
5174,22676,51740.00
5175,22312,51750.00
5176,22204,51760.00
5177,22300,51770.00
5178,22424,51780.00
5179,22544,51790.00
5180,22620,51800.00
5181,22640,51810.00
5182,22632,51820.00
5183,22648,51830.00
5184,22692,51840.00
5185,22760,51850.00
5186,22832,51860.00
5187,22908,51870.00
5188,22980,51880.00
5189,23036,51890.00
5190,23080,51900.00
5191,23112,51910.00
5192,23144,51920.00
5193,23176,51930.00
5194,23204,51940.00
5195,23032,51950.00
5196,22652,51960.00
5197,22388,51970.00
5198,22380,51980.00
5199,22476,51990.00
5200,22588,52000.00
5201,22680,52010.00
5202,22712,52020.00
5203,22700,52030.00
5204,22668,52040.00
5205,22680,52050.00
5206,22736,52060.00
5207,22808,52070.00
5208,22884,52080.00
5209,22956,52090.00
5210,23020,52100.00
5211,23076,52110.00
5212,23124,52120.00
5213,23132,52130.00
5214,22892,52140.00
5215,22500,52150.00
5216,22272,52160.00
5217,22292,52170.00
5218,22400,52180.00
5219,22512,52190.00
5220,22600,52200.00
5221,22628,52210.00
5222,22604,52220.00
5223,22592,52230.00
5224,22628,52240.00
5225,22696,52250.00
5226,22776,52260.00
5227,22852,52270.00
5228,22920,52280.00
5229,22988,52290.00
5230,23036,52300.00
5231,22892,52310.00
5232,22512,52320.00
5233,22228,52330.00
5234,22204,52340.00
5235,22300,52350.00
5236,22428,52360.00
5237,22556,52370.00
5238,22608,52380.00
5239,22600,52390.00
5240,22584,52400.00
5241,22616,52410.00
5242,22672,52420.00
5243,22740,52430.00
5244,22808,52440.00
5245,22868,52450.00
5246,22924,52460.00
5247,22908,52470.00
5248,22616,52480.00
5249,22232,52490.00
5250,22076,52500.00
5251,22124,52510.00
5252,22240,52520.00
5253,22368,52530.00
5254,22448,52540.00
5255,22448,52550.00
5256,22424,52560.00
5257,22424,52570.00
5258,22472,52580.00
5259,22544,52590.00
5260,22620,52600.00
5261,22692,52610.00
5262,22756,52620.00
5263,22764,52630.00
5264,22504,52640.00
5265,22148,52650.00
5266,22016,52660.00
5267,22084,52670.00
5268,22200,52680.00
5269,22324,52690.00
5270,22384,52700.00
5271,22368,52710.00
5272,22332,52720.00
5273,22328,52730.00
5274,22380,52740.00
5275,22440,52750.00
5276,22516,52760.00
5277,22576,52770.00
5278,22628,52780.00
5279,22612,52790.00
5280,22304,52800.00
5281,21932,52810.00
5282,21828,52820.00
5283,21900,52830.00
5284,22004,52840.00
5285,22116,52850.00
5286,22188,52860.00
5287,22200,52870.00
5288,22184,52880.00
5289,22196,52890.00
5290,22248,52900.00
5291,22320,52910.00
5292,22376,52920.00
5293,22428,52930.00
5294,22464,52940.00
5295,22508,52950.00
5296,22540,52960.00
5297,22408,52970.00
5298,21992,52980.00
5299,21704,52990.00
5300,21696,53000.00
5301,21784,53010.00
5302,21860,53020.00
5303,21944,53030.00
5304,22012,53040.00
5305,22032,53050.00
5306,22032,53060.00
5307,22060,53070.00
5308,22116,53080.00
5309,22196,53090.00
5310,22276,53100.00
5311,22340,53110.00
5312,22400,53120.00
5313,22440,53130.00
5314,22476,53140.00
5315,22512,53150.00
5316,22560,53160.00
5317,22612,53170.00
5318,22668,53180.00
5319,22728,53190.00
5320,22784,53200.00
5321,22836,53210.00
5322,22884,53220.00
5323,22764,53230.00
5324,22268,53240.00
5325,21832,53250.00
5326,21740,53260.00
5327,21816,53270.00
5328,21876,53280.00
5329,21944,53290.00
5330,22012,53300.00
5331,22048,53310.00
5332,22056,53320.00
5333,22076,53330.00
5334,22132,53340.00
5335,22208,53350.00
5336,22284,53360.00
5337,22348,53370.00
5338,22396,53380.00
5339,22436,53390.00
5340,22476,53400.00
5341,22512,53410.00
5342,22548,53420.00
5343,22592,53430.00
5344,22644,53440.00
5345,22700,53450.00
5346,22748,53460.00
5347,22808,53470.00
5348,22856,53480.00
5349,22688,53490.00
5350,22224,53500.00
5351,21888,53510.00
5352,21852,53520.00
5353,21920,53530.00
5354,21972,53540.00
5355,22028,53550.00
5356,22080,53560.00
5357,22072,53570.00
5358,22040,53580.00
5359,22044,53590.00
5360,22092,53600.00
5361,22164,53610.00
5362,22240,53620.00
5363,22320,53630.00
5364,22384,53640.00
5365,22428,53650.00
5366,22476,53660.00
5367,22520,53670.00
5368,22568,53680.00
5369,22608,53690.00
5370,22656,53700.00
5371,22712,53710.00
5372,22768,53720.00
5373,22616,53730.00
5374,22192,53740.00
5375,21904,53750.00
5376,21900,53760.00
5377,21996,53770.00
5378,22084,53780.00
5379,22184,53790.00
5380,22252,53800.00
5381,22268,53810.00
5382,22260,53820.00
5383,22284,53830.00
5384,22340,53840.00
5385,22392,53850.00
5386,22428,53860.00
5387,22468,53870.00
5388,22508,53880.00
5389,22532,53890.00
5390,22552,53900.00
5391,22580,53910.00
5392,22616,53920.00
5393,22632,53930.00
5394,22400,53940.00
5395,21980,53950.00
5396,21768,53960.00
5397,21796,53970.00
5398,21884,53980.00
5399,21972,53990.00
5400,22028,54000.00
5401,22044,54010.00
5402,22020,54020.00
5403,22012,54030.00
5404,22052,54040.00
5405,22120,54050.00
5406,22188,54060.00
5407,22248,54070.00
5408,22312,54080.00
5409,22348,54090.00
5410,22364,54100.00
5411,22392,54110.00
5412,22372,54120.00
5413,22096,54130.00
5414,21712,54140.00
5415,21548,54150.00
5416,21576,54160.00
5417,21636,54170.00
5418,21680,54180.00
5419,21708,54190.00
5420,21660,54200.00
5421,21632,54210.00
5422,21652,54220.00
5423,21688,54230.00
5424,21760,54240.00
5425,21848,54250.00
5426,21904,54260.00
5427,21936,54270.00
5428,22000,54280.00
5429,22076,54290.00
5430,22148,54300.00
5431,22204,54310.00
5432,22152,54320.00
5433,21812,54330.00
5434,21512,54340.00
5435,21472,54350.00
5436,21564,54360.00
5437,21664,54370.00
5438,21776,54380.00
5439,21868,54390.00
5440,21900,54400.00
5441,21912,54410.00
5442,21940,54420.00
5443,21992,54430.00
5444,22064,54440.00
5445,22136,54450.00
5446,22196,54460.00
5447,22244,54470.00
5448,22288,54480.00
5449,22332,54490.00
5450,22360,54500.00
5451,22388,54510.00
5452,22424,54520.00
5453,22444,54530.00
5454,22460,54540.00
5455,22516,54550.00
5456,22588,54560.00
5457,22636,54570.00
5458,22412,54580.00
5459,21984,54590.00
5460,21772,54600.00
5461,21792,54610.00
5462,21872,54620.00
5463,21928,54630.00
5464,21992,54640.00
5465,22032,54650.00
5466,22020,54660.00
5467,22012,54670.00
5468,22040,54680.00
5469,22108,54690.00
5470,22180,54700.00
5471,22252,54710.00
5472,22324,54720.00
5473,22388,54730.00
5474,22436,54740.00
5475,22480,54750.00
5476,22520,54760.00
5477,22560,54770.00
5478,22604,54780.00
5479,22644,54790.00
5480,22692,54800.00
5481,22740,54810.00
5482,22756,54820.00
5483,22504,54830.00
5484,22084,54840.00
5485,21892,54850.00
5486,21936,54860.00
5487,22028,54870.00
5488,22104,54880.00
5489,22184,54890.00
5490,22224,54900.00
5491,22220,54910.00
5492,22224,54920.00
5493,22260,54930.00
5494,22312,54940.00
5495,22380,54950.00
5496,22452,54960.00
5497,22512,54970.00
5498,22552,54980.00
5499,22592,54990.00
5500,22632,55000.00
5501,22672,55010.00
5502,22716,55020.00
5503,22756,55030.00
5504,22804,55040.00
5505,22856,55050.00
5506,22768,55060.00
5507,22396,55070.00
5508,22064,55080.00
5509,21996,55090.00
5510,22084,55100.00
5511,22172,55110.00
5512,22256,55120.00
5513,22308,55130.00
5514,22304,55140.00
5515,22288,55150.00
5516,22316,55160.00
5517,22380,55170.00
5518,22452,55180.00
5519,22532,55190.00
5520,22604,55200.00
5521,22664,55210.00
5522,22712,55220.00
5523,22760,55230.00
5524,22804,55240.00
5525,22844,55250.00
5526,22884,55260.00
5527,22928,55270.00
5528,22980,55280.00
5529,23000,55290.00
5530,22752,55300.00
5531,22320,55310.00
5532,22096,55320.00
5533,22116,55330.00
5534,22208,55340.00
5535,22276,55350.00
5536,22340,55360.00
5537,22372,55370.00
5538,22376,55380.00
5539,22376,55390.00
5540,22412,55400.00
5541,22472,55410.00
5542,22548,55420.00
5543,22608,55430.00
5544,22656,55440.00
5545,22696,55450.00
5546,22732,55460.00
5547,22772,55470.00
5548,22812,55480.00
5549,22844,55490.00
5550,22860,55500.00
5551,22892,55510.00
5552,22928,55520.00
5553,22912,55530.00
5554,22596,55540.00
5555,22168,55550.00
5556,21984,55560.00
5557,22020,55570.00
5558,22104,55580.00
5559,22180,55590.00
5560,22252,55600.00
5561,22284,55610.00
5562,22288,55620.00
5563,22292,55630.00
5564,22324,55640.00
5565,22384,55650.00
5566,22456,55660.00
5567,22528,55670.00
5568,22584,55680.00
5569,22640,55690.00
5570,22688,55700.00
5571,22728,55710.00
5572,22764,55720.00
5573,22800,55730.00
5574,22844,55740.00
5575,22884,55750.00
5576,22928,55760.00
5577,22976,55770.00
5578,22944,55780.00
5579,22596,55790.00
5580,22164,55800.00
5581,22012,55810.00
5582,22072,55820.00
5583,22172,55830.00
5584,22252,55840.00
5585,22320,55850.00
5586,22348,55860.00
5587,22332,55870.00
5588,22296,55880.00
5589,22284,55890.00
5590,22280,55900.00
5591,22312,55910.00
5592,22372,55920.00
5593,22436,55930.00
5594,22524,55940.00
5595,22584,55950.00
5596,22592,55960.00
5597,22576,55970.00
5598,22560,55980.00
5599,22540,55990.00
5600,22524,56000.00
5601,22356,56010.00
5602,21944,56020.00
5603,21656,56030.00
5604,21640,56040.00
5605,21740,56050.00
5606,21856,56060.00
5607,21972,56070.00
5608,22032,56080.00
5609,22052,56090.00
5610,22060,56100.00
5611,22056,56110.00
5612,22128,56120.00
5613,22216,56130.00
5614,22276,56140.00
5615,22360,56150.00
5616,22428,56160.00
5617,22464,56170.00
5618,22504,56180.00
5619,22524,56190.00
5620,22540,56200.00
5621,22536,56210.00
5622,22284,56220.00
5623,21908,56230.00
5624,21756,56240.00
5625,21816,56250.00
5626,21928,56260.00
5627,22008,56270.00
5628,22080,56280.00
5629,22112,56290.00
5630,22104,56300.00
5631,22100,56310.00
5632,22140,56320.00
5633,22220,56330.00
5634,22296,56340.00
5635,22348,56350.00
5636,22396,56360.00
5637,22428,56370.00
5638,22444,56380.00
5639,22488,56390.00
5640,22528,56400.00
5641,22552,56410.00
5642,22480,56420.00
5643,22128,56430.00
5644,21796,56440.00
5645,21728,56450.00
5646,21788,56460.00
5647,21840,56470.00
5648,21896,56480.00
5649,21944,56490.00
5650,21968,56500.00
5651,21972,56510.00
5652,21960,56520.00
5653,21992,56530.00
5654,22068,56540.00
5655,22132,56550.00
5656,22196,56560.00
5657,22272,56570.00
5658,22340,56580.00
5659,22400,56590.00
5660,22428,56600.00
5661,22472,56610.00
5662,22524,56620.00
5663,22460,56630.00
5664,22116,56640.00
5665,21816,56650.00
5666,21748,56660.00
5667,21808,56670.00
5668,21896,56680.00
5669,21988,56690.00
5670,22052,56700.00
5671,22072,56710.00
5672,22064,56720.00
5673,22076,56730.00
5674,22132,56740.00
5675,22220,56750.00
5676,22308,56760.00
5677,22368,56770.00
5678,22408,56780.00
5679,22440,56790.00
5680,22456,56800.00
5681,22480,56810.00
5682,22524,56820.00
5683,22556,56830.00
5684,22392,56840.00
5685,22036,56850.00
5686,21828,56860.00
5687,21852,56870.00
5688,21924,56880.00
5689,21980,56890.00
5690,22048,56900.00
5691,22080,56910.00
5692,22072,56920.00
5693,22064,56930.00
5694,22100,56940.00
5695,22152,56950.00
5696,22220,56960.00
5697,22288,56970.00
5698,22344,56980.00
5699,22392,56990.00
5700,22420,57000.00
5701,22448,57010.00
5702,22484,57020.00
5703,22516,57030.00
5704,22552,57040.00
5705,22600,57050.00
5706,22648,57060.00
5707,22564,57070.00
5708,22196,57080.00
5709,21872,57090.00
5710,21816,57100.00
5711,21876,57110.00
5712,21924,57120.00
5713,21988,57130.00
5714,22044,57140.00
5715,22076,57150.00
5716,22064,57160.00
5717,22080,57170.00
5718,22124,57180.00
5719,22188,57190.00
5720,22252,57200.00
5721,22316,57210.00
5722,22368,57220.00
5723,22412,57230.00
5724,22448,57240.00
5725,22484,57250.00
5726,22520,57260.00
5727,22556,57270.00
5728,22600,57280.00
5729,22648,57290.00
5730,22684,57300.00
5731,22720,57310.00
5732,22756,57320.00
5733,22788,57330.00
5734,22824,57340.00
5735,22804,57350.00
5736,22528,57360.00
5737,22112,57370.00
5738,21904,57380.00
5739,21916,57390.00
5740,21976,57400.00
5741,22024,57410.00
5742,22088,57420.00
5743,22132,57430.00
5744,22136,57440.00
5745,22136,57450.00
5746,22164,57460.00
5747,22208,57470.00
5748,22272,57480.00
5749,22344,57490.00
5750,22408,57500.00
5751,22456,57510.00
5752,22508,57520.00
5753,22552,57530.00
5754,22592,57540.00
5755,22636,57550.00
5756,22688,57560.00
5757,22736,57570.00
5758,22784,57580.00
5759,22824,57590.00
5760,22868,57600.00
5761,22908,57610.00
5762,22940,57620.00
5763,22804,57630.00
5764,22436,57640.00
5765,22100,57650.00
5766,22000,57660.00
5767,22048,57670.00
5768,22104,57680.00
5769,22172,57690.00
5770,22224,57700.00
5771,22244,57710.00
5772,22236,57720.00
5773,22248,57730.00
5774,22288,57740.00
5775,22348,57750.00
5776,22416,57760.00
5777,22476,57770.00
5778,22524,57780.00
5779,22556,57790.00
5780,22588,57800.00
5781,22616,57810.00
5782,22644,57820.00
5783,22676,57830.00
5784,22716,57840.00
5785,22764,57850.00
5786,22808,57860.00
5787,22856,57870.00
5788,22892,57880.00
5789,22944,57890.00
5790,22896,57900.00
5791,22588,57910.00
5792,22208,57920.00
5793,22044,57930.00
5794,22072,57940.00
5795,22144,57950.00
5796,22212,57960.00
5797,22272,57970.00
5798,22284,57980.00
5799,22264,57990.00
5800,22252,58000.00
5801,22280,58010.00
5802,22340,58020.00
5803,22408,58030.00
5804,22476,58040.00
5805,22532,58050.00
5806,22584,58060.00
5807,22616,58070.00
5808,22652,58080.00
5809,22688,58090.00
5810,22728,58100.00
5811,22764,58110.00
5812,22804,58120.00
5813,22844,58130.00
5814,22892,58140.00
5815,22808,58150.00
5816,22472,58160.00
5817,22116,58170.00
5818,22000,58180.00
5819,22056,58190.00
5820,22136,58200.00
5821,22212,58210.00
5822,22272,58220.00
5823,22288,58230.00
5824,22280,58240.00
5825,22280,58250.00
5826,22308,58260.00
5827,22364,58270.00
5828,22428,58280.00
5829,22488,58290.00
5830,22544,58300.00
5831,22580,58310.00
5832,22616,58320.00
5833,22644,58330.00
5834,22676,58340.00
5835,22708,58350.00
5836,22748,58360.00
5837,22792,58370.00
5838,22832,58380.00
5839,22768,58390.00
5840,22424,58400.00
5841,22048,58410.00
5842,21916,58420.00
5843,21956,58430.00
5844,22020,58440.00
5845,22084,58450.00
5846,22148,58460.00
5847,22168,58470.00
5848,22160,58480.00
5849,22160,58490.00
5850,22180,58500.00
5851,22240,58510.00
5852,22308,58520.00
5853,22376,58530.00
5854,22432,58540.00
5855,22476,58550.00
5856,22508,58560.00
5857,22536,58570.00
5858,22552,58580.00
5859,22564,58590.00
5860,22584,58600.00
5861,22616,58610.00
5862,22632,58620.00
5863,22420,58630.00
5864,22020,58640.00
5865,21796,58650.00
5866,21796,58660.00
5867,21888,58670.00
5868,21960,58680.00
5869,22040,58690.00
5870,22088,58700.00
5871,22092,58710.00
5872,22088,58720.00
5873,22104,58730.00
5874,22148,58740.00
5875,22208,58750.00
5876,22268,58760.00
5877,22320,58770.00
5878,22356,58780.00
5879,22384,58790.00
5880,22416,58800.00
5881,22444,58810.00
5882,22476,58820.00
5883,22512,58830.00
5884,22564,58840.00
5885,22516,58850.00
5886,22200,58860.00
5887,21876,58870.00
5888,21796,58880.00
5889,21860,58890.00
5890,21940,58900.00
5891,22004,58910.00
5892,22052,58920.00
5893,22052,58930.00
5894,22032,58940.00
5895,22032,58950.00
5896,22072,58960.00
5897,22132,58970.00
5898,22200,58980.00
5899,22256,58990.00
5900,22296,59000.00
5901,22324,59010.00
5902,22348,59020.00
5903,22372,59030.00
5904,22412,59040.00
5905,22404,59050.00
5906,22156,59060.00
5907,21832,59070.00
5908,21712,59080.00
5909,21760,59090.00
5910,21828,59100.00
5911,21888,59110.00
5912,21948,59120.00
5913,21972,59130.00
5914,21968,59140.00
5915,21968,59150.00
5916,22004,59160.00
5917,22068,59170.00
5918,22144,59180.00
5919,22200,59190.00
5920,22244,59200.00
5921,22284,59210.00
5922,22304,59220.00
5923,22324,59230.00
5924,22344,59240.00
5925,22376,59250.00
5926,22416,59260.00
5927,22452,59270.00
5928,22344,59280.00
5929,21972,59290.00
5930,21688,59300.00
5931,21656,59310.00
5932,21716,59320.00
5933,21760,59330.00
5934,21816,59340.00
5935,21880,59350.00
5936,21908,59360.00
5937,21916,59370.00
5938,21928,59380.00
5939,21968,59390.00
5940,22028,59400.00
5941,22088,59410.00
5942,22140,59420.00
5943,22172,59430.00
5944,22204,59440.00
5945,22236,59450.00
5946,22264,59460.00
5947,22296,59470.00
5948,22336,59480.00
5949,22380,59490.00
5950,22420,59500.00
5951,22448,59510.00
5952,22496,59520.00
5953,22496,59530.00
5954,22224,59540.00
5955,21812,59550.00
5956,21632,59560.00
5957,21664,59570.00
5958,21720,59580.00
5959,21748,59590.00
5960,21820,59600.00
5961,21876,59610.00
5962,21900,59620.00
5963,21904,59630.00
5964,21936,59640.00
5965,21992,59650.00
5966,22052,59660.00
5967,22116,59670.00
5968,22160,59680.00
5969,22196,59690.00
5970,22224,59700.00
5971,22248,59710.00
5972,22276,59720.00
5973,22312,59730.00
5974,22352,59740.00
5975,22396,59750.00
5976,22444,59760.00
5977,22492,59770.00
5978,22528,59780.00
5979,22568,59790.00
5980,22620,59800.00
5981,22544,59810.00
5982,22160,59820.00
5983,21816,59830.00
5984,21744,59840.00
5985,21808,59850.00
5986,21856,59860.00
5987,21900,59870.00
5988,21960,59880.00
5989,21984,59890.00
5990,21976,59900.00
5991,21976,59910.00
5992,22012,59920.00
5993,22076,59930.00
5994,22140,59940.00
5995,22196,59950.00
5996,22244,59960.00
5997,22280,59970.00
5998,22308,59980.00
5999,22344,59990.00
