Sample_Index,IR_Value,Timestamp_ms
0,21324,0.00
1,21248,3.33
2,21244,6.67
3,21232,10.00
4,21268,13.33
5,21312,16.67
6,21384,20.00
7,21396,23.33
8,21392,26.67
9,21476,30.00
10,21744,33.33
11,22188,36.67
12,22792,40.00
13,23424,43.33
14,24008,46.67
15,24432,50.00
16,24736,53.33
17,24996,56.67
18,25292,60.00
19,25472,63.33
20,25584,66.67
21,25664,70.00
22,25724,73.33
23,25780,76.67
24,25820,80.00
25,25844,83.33
26,25868,86.67
27,25900,90.00
28,25944,93.33
29,26000,96.67
30,26060,100.00
31,26108,103.33
32,26152,106.67
33,26200,110.00
34,26252,113.33
35,26300,116.67
36,26308,120.00
37,26296,123.33
38,26288,126.67
39,26288,130.00
40,26300,133.33
41,26324,136.67
42,26368,140.00
43,26416,143.33
44,26376,146.67
45,26336,150.00
46,26272,153.33
47,26184,156.67
48,26152,160.00
49,26092,163.33
50,25992,166.67
51,25868,170.00
52,25720,173.33
53,25592,176.67
54,25508,180.00
55,25468,183.33
56,25456,186.67
57,25468,190.00
58,25480,193.33
59,25488,196.67
60,25500,200.00
61,25504,203.33
62,25508,206.67
63,25512,210.00
64,25508,213.33
65,25492,216.67
66,25480,220.00
67,25472,223.33
68,25512,226.67
69,25552,230.00
70,25548,233.33
71,25536,236.67
72,25524,240.00
73,25512,243.33
74,25500,246.67
75,25488,250.00
76,25480,253.33
77,25472,256.67
78,25468,260.00
79,25460,263.33
80,25460,266.67
81,25456,270.00
82,25468,273.33
83,25472,276.67
84,25480,280.00
85,25492,283.33
86,25504,286.67
87,25516,290.00
88,25532,293.33
89,25536,296.67
90,25548,300.00
91,25568,303.33
92,25576,306.67
93,25596,310.00
94,25604,313.33
95,25620,316.67
96,25636,320.00
97,25652,323.33
98,25632,326.67
99,25568,330.00
100,25456,333.33
101,25304,336.67
102,25144,340.00
103,25012,343.33
104,24920,346.67
105,24872,350.00
106,24856,353.33
107,24864,356.67
108,24880,360.00
109,24896,363.33
110,24916,366.67
111,24928,370.00
112,24948,373.33
113,24964,376.67
114,24968,380.00
115,24964,383.33
116,24936,386.67
117,24904,390.00
118,24884,393.33
119,24868,396.67
120,24864,400.00
121,24848,403.33
122,24840,406.67
123,24848,410.00
124,24864,413.33
125,24884,416.67
126,24900,420.00
127,24912,423.33
128,24924,426.67
129,24940,430.00
130,24956,433.33
131,24976,436.67
132,24996,440.00
133,25016,443.33
134,25040,446.67
135,25064,450.00
136,25080,453.33
137,25104,456.67
138,25136,460.00
139,25164,463.33
140,25180,466.67
141,25192,470.00
142,25208,473.33
143,25208,476.67
144,25208,480.00
145,25208,483.33
146,25168,486.67
147,25056,490.00
148,24876,493.33
149,24644,496.67
150,24388,500.00
151,24160,503.33
152,23988,506.67
153,23868,510.00
154,23776,513.33
155,23692,516.67
156,23620,520.00
157,23560,523.33
158,23508,526.67
159,23448,530.00
160,23392,533.33
161,23320,536.67
162,23248,540.00
163,23184,543.33
164,23128,546.67
165,23084,550.00
166,23044,553.33
167,23016,556.67
168,22996,560.00
169,22992,563.33
170,23012,566.67
171,23044,570.00
172,23080,573.33
173,23120,576.67
174,23168,580.00
175,23216,583.33
176,23260,586.67
177,23300,590.00
178,23336,593.33
179,23376,596.67
180,23412,600.00
181,23440,603.33
182,23464,606.67
183,23492,610.00
184,23520,613.33
185,23560,616.67
186,23608,620.00
187,23648,623.33
188,23688,626.67
189,23740,630.00
190,23792,633.33
191,23844,636.67
192,23892,640.00
193,23932,643.33
194,23980,646.67
195,24012,650.00
196,24008,653.33
197,23948,656.67
198,23804,660.00
199,23604,663.33
200,23384,666.67
201,23188,670.00
202,23052,673.33
203,22984,676.67
204,22952,680.00
205,22952,683.33
206,22964,686.67
207,22980,690.00
208,22996,693.33
209,23024,696.67
210,23044,700.00
211,23052,703.33
212,23052,706.67
213,23048,710.00
214,23044,713.33
215,23044,716.67
216,23048,720.00
217,23060,723.33
218,23084,726.67
219,23116,730.00
220,23152,733.33
221,23192,736.67
222,23232,740.00
223,23280,743.33
224,23324,746.67
225,23360,750.00
226,23400,753.33
227,23436,756.67
228,23472,760.00
229,23504,763.33
230,23532,766.67
231,23556,770.00
232,23584,773.33
233,23604,776.67
234,23632,780.00
235,23652,783.33
236,23672,786.67
237,23692,790.00
238,23712,793.33
239,23736,796.67
240,23760,800.00
241,23784,803.33
242,23816,806.67
243,23828,810.00
244,23780,813.33
245,23656,816.67
246,23472,820.00
247,23276,823.33
248,23108,826.67
249,22992,830.00
250,22928,833.33
251,22908,836.67
252,22908,840.00
253,22920,843.33
254,22936,846.67
255,22956,850.00
256,22984,853.33
257,23012,856.67
258,23032,860.00
259,23032,863.33
260,23024,866.67
261,23004,870.00
262,22992,873.33
263,22972,876.67
264,22968,880.00
265,22972,883.33
266,22988,886.67
267,23008,890.00
268,23040,893.33
269,23076,896.67
270,23104,900.00
271,23140,903.33
272,23172,906.67
273,23208,910.00
274,23228,913.33
275,23252,916.67
276,23280,920.00
277,23300,923.33
278,23320,926.67
279,23348,930.00
280,23368,933.33
281,23380,936.67
282,23400,940.00
283,23412,943.33
284,23408,946.67
285,23328,950.00
286,23180,953.33
287,22996,956.67
288,22812,960.00
289,22672,963.33
290,22584,966.67
291,22556,970.00
292,22556,973.33
293,22572,976.67
294,22592,980.00
295,22620,983.33
296,22648,986.67
297,22684,990.00
298,22728,993.33
299,22752,996.67
300,22772,1000.00
301,22776,1003.33
302,22764,1006.67
303,22760,1010.00
304,22756,1013.33
305,22764,1016.67
306,22788,1020.00
307,22812,1023.33
308,22840,1026.67
309,22876,1030.00
310,22912,1033.33
311,22952,1036.67
312,22984,1040.00
313,23020,1043.33
314,23052,1046.67
315,23080,1050.00
316,23104,1053.33
317,23128,1056.67
318,23152,1060.00
319,23172,1063.33
320,23196,1066.67
321,23176,1070.00
322,23088,1073.33
323,22932,1076.67
324,22752,1080.00
325,22584,1083.33
326,22460,1086.67
327,22408,1090.00
328,22392,1093.33
329,22404,1096.67
330,22428,1100.00
331,22448,1103.33
332,22468,1106.67
333,22492,1110.00
334,22528,1113.33
335,22564,1116.67
336,22588,1120.00
337,22604,1123.33
338,22608,1126.67
339,22604,1130.00
340,22596,1133.33
341,22600,1136.67
342,22608,1140.00
343,22628,1143.33
344,22660,1146.67
345,22696,1150.00
346,22732,1153.33
347,22764,1156.67
348,22800,1160.00
349,22832,1163.33
350,22864,1166.67
351,22888,1170.00
352,22916,1173.33
353,22940,1176.67
354,22968,1180.00
355,22980,1183.33
356,22932,1186.67
357,22812,1190.00
358,22644,1193.33
359,22472,1196.67
360,22336,1200.00
361,22260,1203.33
362,22240,1206.67
363,22252,1210.00
364,22276,1213.33
365,22296,1216.67
366,22312,1220.00
367,22336,1223.33
368,22368,1226.67
369,22404,1230.00
370,22436,1233.33
371,22456,1236.67
372,22468,1240.00
373,22468,1243.33
374,22464,1246.67
375,22464,1250.00
376,22472,1253.33
377,22492,1256.67
378,22520,1260.00
379,22548,1263.33
380,22580,1266.67
381,22616,1270.00
382,22656,1273.33
383,22688,1276.67
384,22720,1280.00
385,22744,1283.33
386,22768,1286.67
387,22796,1290.00
388,22820,1293.33
389,22844,1296.67
390,22860,1300.00
391,22836,1303.33
392,22736,1306.67
393,22588,1310.00
394,22424,1313.33
395,22296,1316.67
396,22216,1320.00
397,22196,1323.33
398,22208,1326.67
399,22236,1330.00
400,22260,1333.33
401,22280,1336.67
402,22304,1340.00
403,22344,1343.33
404,22384,1346.67
405,22416,1350.00
406,22436,1353.33
407,22444,1356.67
408,22444,1360.00
409,22444,1363.33
410,22444,1366.67
411,22452,1370.00
412,22472,1373.33
413,22496,1376.67
414,22528,1380.00
415,22564,1383.33
416,22600,1386.67
417,22636,1390.00
418,22672,1393.33
419,22704,1396.67
420,22736,1400.00
421,22752,1403.33
422,22772,1406.67
423,22800,1410.00
424,22824,1413.33
425,22848,1416.67
426,22872,1420.00
427,22892,1423.33
428,22888,1426.67
429,22812,1430.00
430,22684,1433.33
431,22520,1436.67
432,22376,1440.00
433,22280,1443.33
434,22240,1446.67
435,22228,1450.00
436,22248,1453.33
437,22264,1456.67
438,22284,1460.00
439,22304,1463.33
440,22336,1466.67
441,22368,1470.00
442,22400,1473.33
443,22420,1476.67
444,22428,1480.00
445,22432,1483.33
446,22420,1486.67
447,22424,1490.00
448,22428,1493.33
449,22448,1496.67
450,22468,1500.00
451,22500,1503.33
452,22532,1506.67
453,22568,1510.00
454,22604,1513.33
455,22640,1516.67
456,22672,1520.00
457,22700,1523.33
458,22724,1526.67
459,22744,1530.00
460,22764,1533.33
461,22784,1536.67
462,22804,1540.00
463,22824,1543.33
464,22844,1546.67
465,22864,1550.00
466,22888,1553.33
467,22916,1556.67
468,22928,1560.00
469,22876,1563.33
470,22756,1566.67
471,22588,1570.00
472,22424,1573.33
473,22296,1576.67
474,22220,1580.00
475,22188,1583.33
476,22192,1586.67
477,22204,1590.00
478,22212,1593.33
479,22220,1596.67
480,22236,1600.00
481,22276,1603.33
482,22316,1606.67
483,22352,1610.00
484,22380,1613.33
485,22396,1616.67
486,22396,1620.00
487,22392,1623.33
488,22396,1626.67
489,22404,1630.00
490,22424,1633.33
491,22448,1636.67
492,22484,1640.00
493,22512,1643.33
494,22544,1646.67
495,22580,1650.00
496,22604,1653.33
497,22632,1656.67
498,22660,1660.00
499,22684,1663.33
500,22704,1666.67
501,22728,1670.00
502,22748,1673.33
503,22768,1676.67
504,22792,1680.00
505,22816,1683.33
506,22836,1686.67
507,22860,1690.00
508,22884,1693.33
509,22904,1696.67
510,22928,1700.00
511,22952,1703.33
512,22976,1706.67
513,23000,1710.00
514,23020,1713.33
515,23040,1716.67
516,23064,1720.00
517,23084,1723.33
518,23104,1726.67
519,23072,1730.00
520,22968,1733.33
521,22796,1736.67
522,22608,1740.00
523,22440,1743.33
524,22328,1746.67
525,22264,1750.00
526,22236,1753.33
527,22232,1756.67
528,22236,1760.00
529,22228,1763.33
530,22228,1766.67
531,22240,1770.00
532,22268,1773.33
533,22308,1776.67
534,22344,1780.00
535,22372,1783.33
536,22384,1786.67
537,22384,1790.00
538,22384,1793.33
539,22392,1796.67
540,22396,1800.00
541,22416,1803.33
542,22444,1806.67
543,22476,1810.00
544,22508,1813.33
545,22544,1816.67
546,22572,1820.00
547,22604,1823.33
548,22632,1826.67
549,22660,1830.00
550,22688,1833.33
551,22708,1836.67
552,22728,1840.00
553,22752,1843.33
554,22776,1846.67
555,22800,1850.00
556,22820,1853.33
557,22848,1856.67
558,22876,1860.00
559,22904,1863.33
560,22932,1866.67
561,22960,1870.00
562,22984,1873.33
563,23012,1876.67
564,23032,1880.00
565,23060,1883.33
566,23084,1886.67
567,23108,1890.00
568,23128,1893.33
569,23148,1896.67
570,23172,1900.00
571,23192,1903.33
572,23216,1906.67
573,23220,1910.00
574,23172,1913.33
575,23052,1916.67
576,22880,1920.00
577,22688,1923.33
578,22532,1926.67
579,22424,1930.00
580,22364,1933.33
581,22340,1936.67
582,22336,1940.00
583,22340,1943.33
584,22336,1946.67
585,22336,1950.00
586,22348,1953.33
587,22372,1956.67
588,22400,1960.00
589,22428,1963.33
590,22444,1966.67
591,22448,1970.00
592,22448,1973.33
593,22444,1976.67
594,22448,1980.00
595,22460,1983.33
596,22480,1986.67
597,22512,1990.00
598,22548,1993.33
599,22588,1996.67
600,22624,2000.00
601,22660,2003.33
602,22704,2006.67
603,22736,2010.00
604,22764,2013.33
605,22792,2016.67
606,22816,2020.00
607,22832,2023.33
608,22856,2026.67
609,22884,2030.00
610,22904,2033.33
611,22928,2036.67
612,22952,2040.00
613,22976,2043.33
614,22992,2046.67
615,23020,2050.00
616,23044,2053.33
617,23068,2056.67
618,23092,2060.00
619,23120,2063.33
620,23144,2066.67
621,23168,2070.00
622,23184,2073.33
623,23204,2076.67
624,23224,2080.00
625,23244,2083.33
626,23256,2086.67
627,23228,2090.00
628,23132,2093.33
629,22976,2096.67
630,22792,2100.00
631,22632,2103.33
632,22512,2106.67
633,22444,2110.00
634,22416,2113.33
635,22420,2116.67
636,22432,2120.00
637,22444,2123.33
638,22452,2126.67
639,22460,2130.00
640,22484,2133.33
641,22504,2136.67
642,22524,2140.00
643,22536,2143.33
644,22532,2146.67
645,22524,2150.00
646,22520,2153.33
647,22516,2156.67
648,22524,2160.00
649,22540,2163.33
650,22568,2166.67
651,22596,2170.00
652,22628,2173.33
653,22664,2176.67
654,22696,2180.00
655,22736,2183.33
656,22764,2186.67
657,22800,2190.00
658,22836,2193.33
659,22860,2196.67
660,22884,2200.00
661,22904,2203.33
662,22924,2206.67
663,22940,2210.00
664,22960,2213.33
665,22980,2216.67
666,23000,2220.00
667,23020,2223.33
668,23044,2226.67
669,23064,2230.00
670,23088,2233.33
671,23112,2236.67
672,23140,2240.00
673,23168,2243.33
674,23196,2246.67
675,23192,2250.00
676,23108,2253.33
677,22964,2256.67
678,22784,2260.00
679,22612,2263.33
680,22484,2266.67
681,22404,2270.00
682,22372,2273.33
683,22380,2276.67
684,22388,2280.00
685,22400,2283.33
686,22408,2286.67
687,22424,2290.00
688,22452,2293.33
689,22488,2296.67
690,22520,2300.00
691,22544,2303.33
692,22560,2306.67
693,22568,2310.00
694,22564,2313.33
695,22568,2316.67
696,22576,2320.00
697,22592,2323.33
698,22620,2326.67
699,22652,2330.00
700,22684,2333.33
701,22720,2336.67
702,22760,2340.00
703,22796,2343.33
704,22824,2346.67
705,22852,2350.00
706,22880,2353.33
707,22904,2356.67
708,22924,2360.00
709,22948,2363.33
710,22968,2366.67
711,22988,2370.00
712,23008,2373.33
713,23028,2376.67
714,23044,2380.00
715,23072,2383.33
716,23092,2386.67
717,23112,2390.00
718,23136,2393.33
719,23160,2396.67
720,23184,2400.00
721,23208,2403.33
722,23228,2406.67
723,23232,2410.00
724,23160,2413.33
725,23024,2416.67
726,22840,2420.00
727,22664,2423.33
728,22520,2426.67
729,22428,2430.00
730,22384,2433.33
731,22380,2436.67
732,22388,2440.00
733,22404,2443.33
734,22412,2446.67
735,22416,2450.00
736,22432,2453.33
737,22464,2456.67
738,22496,2460.00
739,22520,2463.33
740,22540,2466.67
741,22548,2470.00
742,22548,2473.33
743,22544,2476.67
744,22548,2480.00
745,22560,2483.33
746,22580,2486.67
747,22608,2490.00
748,22636,2493.33
749,22672,2496.67
750,22708,2500.00
751,22744,2503.33
752,22776,2506.67
753,22808,2510.00
754,22832,2513.33
755,22852,2516.67
756,22868,2520.00
757,22892,2523.33
758,22912,2526.67
759,22928,2530.00
760,22948,2533.33
761,22968,2536.67
762,22992,2540.00
763,23012,2543.33
764,23044,2546.67
765,23072,2550.00
766,23096,2553.33
767,23120,2556.67
768,23148,2560.00
769,23172,2563.33
770,23172,2566.67
771,23112,2570.00
772,22972,2573.33
773,22796,2576.67
774,22620,2580.00
775,22480,2583.33
776,22388,2586.67
777,22348,2590.00
778,22344,2593.33
779,22360,2596.67
780,22376,2600.00
781,22388,2603.33
782,22400,2606.67
783,22424,2610.00
784,22456,2613.33
785,22488,2616.67
786,22516,2620.00
787,22532,2623.33
788,22540,2626.67
789,22544,2630.00
790,22548,2633.33
791,22556,2636.67
792,22568,2640.00
793,22588,2643.33
794,22616,2646.67
795,22648,2650.00
796,22680,2653.33
797,22716,2656.67
798,22756,2660.00
799,22792,2663.33
800,22828,2666.67
801,22860,2670.00
802,22896,2673.33
803,22928,2676.67
804,22952,2680.00
805,22976,2683.33
806,22996,2686.67
807,23016,2690.00
808,23040,2693.33
809,23068,2696.67
810,23096,2700.00
811,23116,2703.33
812,23108,2706.67
813,23048,2710.00
814,22908,2713.33
815,22740,2716.67
816,22584,2720.00
817,22460,2723.33
818,22396,2726.67
819,22380,2730.00
820,22396,2733.33
821,22424,2736.67
822,22444,2740.00
823,22468,2743.33
824,22500,2746.67
825,22540,2750.00
826,22588,2753.33
827,22636,2756.67
828,22676,2760.00
829,22704,2763.33
830,22732,2766.67
831,22756,2770.00
832,22772,2773.33
833,22784,2776.67
834,22808,2780.00
835,22844,2783.33
836,22884,2786.67
837,22928,2790.00
838,22976,2793.33
839,23028,2796.67
840,23088,2800.00
841,23140,2803.33
842,23200,2806.67
843,23244,2810.00
844,23284,2813.33
845,23320,2816.67
846,23360,2820.00
847,23408,2823.33
848,23448,2826.67
849,23456,2830.00
850,23404,2833.33
851,23276,2836.67
852,23116,2840.00
853,22960,2843.33
854,22840,2846.67
855,22772,2850.00
856,22752,2853.33
857,22760,2856.67
858,22788,2860.00
859,22816,2863.33
860,22836,2866.67
861,22868,2870.00
862,22912,2873.33
863,22964,2876.67
864,23012,2880.00
865,23056,2883.33
866,23088,2886.67
867,23104,2890.00
868,23116,2893.33
869,23128,2896.67
870,23144,2900.00
871,23176,2903.33
872,23212,2906.67
873,23252,2910.00
874,23284,2913.33
875,23328,2916.67
876,23372,2920.00
877,23420,2923.33
878,23472,2926.67
879,23516,2930.00
880,23556,2933.33
881,23592,2936.67
882,23624,2940.00
883,23664,2943.33
884,23696,2946.67
885,23696,2950.00
886,23624,2953.33
887,23476,2956.67
888,23296,2960.00
889,23128,2963.33
890,23016,2966.67
891,22960,2970.00
892,22932,2973.33
893,22936,2976.67
894,22948,2980.00
895,22956,2983.33
896,22972,2986.67
897,22988,2990.00
898,23020,2993.33
899,23056,2996.67
900,23088,3000.00
901,23112,3003.33
902,23120,3006.67
903,23120,3010.00
904,23116,3013.33
905,23120,3016.67
906,23128,3020.00
907,23144,3023.33
908,23172,3026.67
909,23200,3030.00
910,23236,3033.33
911,23268,3036.67
912,23312,3040.00
913,23344,3043.33
914,23380,3046.67
915,23412,3050.00
916,23440,3053.33
917,23464,3056.67
918,23488,3060.00
919,23512,3063.33
920,23524,3066.67
921,23536,3070.00
922,23552,3073.33
923,23572,3076.67
924,23588,3080.00
925,23612,3083.33
926,23628,3086.67
927,23640,3090.00
928,23660,3093.33
929,23680,3096.67
930,23700,3100.00
931,23724,3103.33
932,23748,3106.67
933,23772,3110.00
934,23792,3113.33
935,23816,3116.67
936,23840,3120.00
937,23852,3123.33
938,23808,3126.67
939,23668,3130.00
940,23464,3133.33
941,23228,3136.67
942,23020,3140.00
943,22868,3143.33
944,22792,3146.67
945,22768,3150.00
946,22776,3153.33
947,22792,3156.67
948,22804,3160.00
949,22816,3163.33
950,22828,3166.67
951,22856,3170.00
952,22884,3173.33
953,22908,3176.67
954,22928,3180.00
955,22936,3183.33
956,22932,3186.67
957,22928,3190.00
958,22932,3193.33
959,22940,3196.67
960,22960,3200.00
961,22980,3203.33
962,23008,3206.67
963,23036,3210.00
964,23068,3213.33
965,23100,3216.67
966,23132,3220.00
967,23156,3223.33
968,23188,3226.67
969,23216,3230.00
970,23240,3233.33
971,23268,3236.67
972,23292,3240.00
973,23312,3243.33
974,23336,3246.67
975,23360,3250.00
976,23384,3253.33
977,23408,3256.67
978,23432,3260.00
979,23456,3263.33
980,23480,3266.67
981,23508,3270.00
982,23528,3273.33
983,23556,3276.67
984,23580,3280.00
985,23612,3283.33
986,23640,3286.67
987,23636,3290.00
988,23560,3293.33
989,23412,3296.67
990,23216,3300.00
991,23020,3303.33
992,22868,3306.67
993,22776,3310.00
994,22740,3313.33
995,22748,3316.67
996,22764,3320.00
997,22788,3323.33
998,22808,3326.67
999,22824,3330.00
1000,22856,3333.33
1001,22888,3336.67
1002,22916,3340.00
1003,22936,3343.33
1004,22948,3346.67
1005,22948,3350.00
1006,22948,3353.33
1007,22944,3356.67
1008,22948,3360.00
1009,22956,3363.33
1010,22972,3366.67
1011,22996,3370.00
1012,23024,3373.33
1013,23060,3376.67
1014,23092,3380.00
1015,23124,3383.33
1016,23160,3386.67
1017,23188,3390.00
1018,23216,3393.33
1019,23244,3396.67
1020,23268,3400.00
1021,23288,3403.33
1022,23312,3406.67
1023,23332,3410.00
1024,23352,3413.33
1025,23376,3416.67
1026,23396,3420.00
1027,23416,3423.33
1028,23440,3426.67
1029,23460,3430.00
1030,23484,3433.33
1031,23504,3436.67
1032,23528,3440.00
1033,23552,3443.33
1034,23564,3446.67
1035,23528,3450.00
1036,23416,3453.33
1037,23248,3456.67
1038,23064,3460.00
1039,22904,3463.33
1040,22796,3466.67
1041,22748,3470.00
1042,22744,3473.33
1043,22768,3476.67
1044,22800,3480.00
1045,22828,3483.33
1046,22860,3486.67
1047,22900,3490.00
1048,22940,3493.33
1049,22972,3496.67
1050,22992,3500.00
1051,23000,3503.33
1052,23000,3506.67
1053,22996,3510.00
1054,23004,3513.33
1055,23008,3516.67
1056,23016,3520.00
1057,23028,3523.33
1058,23048,3526.67
1059,23072,3530.00
1060,23104,3533.33
1061,23136,3536.67
1062,23168,3540.00
1063,23204,3543.33
1064,23232,3546.67
1065,23260,3550.00
1066,23288,3553.33
1067,23316,3556.67
1068,23340,3560.00
1069,23364,3563.33
1070,23384,3566.67
1071,23404,3570.00
1072,23424,3573.33
1073,23444,3576.67
1074,23464,3580.00
1075,23488,3583.33
1076,23496,3586.67
1077,23452,3590.00
1078,23348,3593.33
1079,23192,3596.67
1080,23024,3600.00
1081,22880,3603.33
1082,22784,3606.67
1083,22748,3610.00
1084,22752,3613.33
1085,22780,3616.67
1086,22820,3620.00
1087,22860,3623.33
1088,22904,3626.67
1089,22948,3630.00
1090,22988,3633.33
1091,23028,3636.67
1092,23064,3640.00
1093,23088,3643.33
1094,23100,3646.67
1095,23108,3650.00
1096,23108,3653.33
1097,23112,3656.67
1098,23120,3660.00
1099,23136,3663.33
1100,23160,3666.67
1101,23184,3670.00
1102,23212,3673.33
1103,23244,3676.67
1104,23276,3680.00
1105,23304,3683.33
1106,23332,3686.67
1107,23356,3690.00
1108,23376,3693.33
1109,23388,3696.67
1110,23408,3700.00
1111,23420,3703.33
1112,23436,3706.67
1113,23452,3710.00
1114,23460,3713.33
1115,23424,3716.67
1116,23316,3720.00
1117,23152,3723.33
1118,22968,3726.67
1119,22816,3730.00
1120,22720,3733.33
1121,22680,3736.67
1122,22680,3740.00
1123,22700,3743.33
1124,22724,3746.67
1125,22752,3750.00
1126,22772,3753.33
1127,22796,3756.67
1128,22824,3760.00
1129,22856,3763.33
1130,22880,3766.67
1131,22896,3770.00
1132,22900,3773.33
1133,22904,3776.67
1134,22900,3780.00
1135,22900,3783.33
1136,22912,3786.67
1137,22928,3790.00
1138,22956,3793.33
1139,22980,3796.67
1140,23012,3800.00
1141,23040,3803.33
1142,23080,3806.67
1143,23112,3810.00
1144,23140,3813.33
1145,23168,3816.67
1146,23192,3820.00
1147,23216,3823.33
1148,23240,3826.67
1149,23256,3830.00
1150,23272,3833.33
1151,23292,3836.67
1152,23312,3840.00
1153,23328,3843.33
1154,23300,3846.67
1155,23196,3850.00
1156,23032,3853.33
1157,22852,3856.67
1158,22704,3860.00
1159,22612,3863.33
1160,22572,3866.67
1161,22576,3870.00
1162,22600,3873.33
1163,22620,3876.67
1164,22636,3880.00
1165,22652,3883.33
1166,22668,3886.67
1167,22692,3890.00
1168,22728,3893.33
1169,22764,3896.67
1170,22788,3900.00
1171,22804,3903.33
1172,22808,3906.67
1173,22812,3910.00
1174,22816,3913.33
1175,22824,3916.67
1176,22840,3920.00
1177,22860,3923.33
1178,22884,3926.67
1179,22916,3930.00
1180,22948,3933.33
1181,22984,3936.67
1182,23016,3940.00
1183,23048,3943.33
1184,23076,3946.67
1185,23104,3950.00
1186,23128,3953.33
1187,23144,3956.67
1188,23168,3960.00
1189,23192,3963.33
1190,23208,3966.67
1191,23228,3970.00
1192,23248,3973.33
1193,23264,3976.67
1194,23284,3980.00
1195,23304,3983.33
1196,23324,3986.67
1197,23344,3990.00
1198,23368,3993.33
1199,23388,3996.67
1200,23368,4000.00
1201,23268,4003.33
1202,23104,4006.67
1203,22896,4010.00
1204,22724,4013.33
1205,22608,4016.67
1206,22556,4020.00
1207,22556,4023.33
1208,22572,4026.67
1209,22596,4030.00
1210,22616,4033.33
1211,22632,4036.67
1212,22648,4040.00
1213,22672,4043.33
1214,22708,4046.67
1215,22740,4050.00
1216,22764,4053.33
1217,22784,4056.67
1218,22784,4060.00
1219,22788,4063.33
1220,22792,4066.67
1221,22800,4070.00
1222,22816,4073.33
1223,22832,4076.67
1224,22860,4080.00
1225,22892,4083.33
1226,22924,4086.67
1227,22956,4090.00
1228,22988,4093.33
1229,23016,4096.67
1230,23048,4100.00
1231,23072,4103.33
1232,23092,4106.67
1233,23120,4110.00
1234,23136,4113.33
1235,23152,4116.67
1236,23176,4120.00
1237,23192,4123.33
1238,23212,4126.67
1239,23232,4130.00
1240,23256,4133.33
1241,23276,4136.67
1242,23296,4140.00
1243,23320,4143.33
1244,23344,4146.67
1245,23368,4150.00
1246,23388,4153.33
1247,23412,4156.67
1248,23436,4160.00
1249,23460,4163.33
1250,23480,4166.67
1251,23468,4170.00
1252,23376,4173.33
1253,23208,4176.67
1254,22996,4180.00
1255,22808,4183.33
1256,22672,4186.67
1257,22600,4190.00
1258,22584,4193.33
1259,22596,4196.67
1260,22624,4200.00
1261,22648,4203.33
1262,22672,4206.67
1263,22688,4210.00
1264,22716,4213.33
1265,22744,4216.67
1266,22772,4220.00
1267,22796,4223.33
1268,22812,4226.67
1269,22816,4230.00
1270,22816,4233.33
1271,22816,4236.67
1272,22820,4240.00
1273,22832,4243.33
1274,22852,4246.67
1275,22876,4250.00
1276,22904,4253.33
1277,22932,4256.67
1278,22964,4260.00
1279,22996,4263.33
1280,23028,4266.67
1281,23060,4270.00
1282,23088,4273.33
1283,23112,4276.67
1284,23132,4280.00
1285,23152,4283.33
1286,23168,4286.67
1287,23188,4290.00
1288,23200,4293.33
1289,23224,4296.67
1290,23240,4300.00
1291,23260,4303.33
1292,23280,4306.67
1293,23300,4310.00
1294,23324,4313.33
1295,23344,4316.67
1296,23368,4320.00
1297,23392,4323.33
1298,23412,4326.67
1299,23432,4330.00
1300,23456,4333.33
1301,23480,4336.67
1302,23492,4340.00
1303,23452,4343.33
1304,23336,4346.67
1305,23152,4350.00
1306,22952,4353.33
1307,22780,4356.67
1308,22672,4360.00
1309,22620,4363.33
1310,22620,4366.67
1311,22640,4370.00
1312,22676,4373.33
1313,22700,4376.67
1314,22724,4380.00
1315,22748,4383.33
1316,22784,4386.67
1317,22812,4390.00
1318,22832,4393.33
1319,22844,4396.67
1320,22844,4400.00
1321,22836,4403.33
1322,22828,4406.67
1323,22828,4410.00
1324,22832,4413.33
1325,22844,4416.67
1326,22860,4420.00
1327,22884,4423.33
1328,22908,4426.67
1329,22940,4430.00
1330,22972,4433.33
1331,23000,4436.67
1332,23032,4440.00
1333,23056,4443.33
1334,23080,4446.67
1335,23104,4450.00
1336,23124,4453.33
1337,23140,4456.67
1338,23156,4460.00
1339,23172,4463.33
1340,23184,4466.67
1341,23204,4470.00
1342,23220,4473.33
1343,23236,4476.67
1344,23256,4480.00
1345,23272,4483.33
1346,23292,4486.67
1347,23316,4490.00
1348,23324,4493.33
1349,23272,4496.67
1350,23152,4500.00
1351,22980,4503.33
1352,22804,4506.67
1353,22672,4510.00
1354,22592,4513.33
1355,22572,4516.67
1356,22588,4520.00
1357,22616,4523.33
1358,22648,4526.67
1359,22680,4530.00
1360,22716,4533.33
1361,22748,4536.67
1362,22784,4540.00
1363,22816,4543.33
1364,22832,4546.67
1365,22836,4550.00
1366,22832,4553.33
1367,22824,4556.67
1368,22820,4560.00
1369,22820,4563.33
1370,22832,4566.67
1371,22852,4570.00
1372,22876,4573.33
1373,22904,4576.67
1374,22940,4580.00
1375,22972,4583.33
1376,23004,4586.67
1377,23036,4590.00
1378,23056,4593.33
1379,23088,4596.67
1380,23108,4600.00
1381,23128,4603.33
1382,23144,4606.67
1383,23160,4610.00
1384,23176,4613.33
1385,23196,4616.67
1386,23212,4620.00
1387,23228,4623.33
1388,23244,4626.67
1389,23264,4630.00
1390,23280,4633.33
1391,23304,4636.67
1392,23296,4640.00
1393,23232,4643.33
1394,23088,4646.67
1395,22908,4650.00
1396,22732,4653.33
1397,22600,4656.67
1398,22528,4660.00
1399,22512,4663.33
1400,22528,4666.67
1401,22556,4670.00
1402,22580,4673.33
1403,22604,4676.67
1404,22616,4680.00
1405,22644,4683.33
1406,22676,4686.67
1407,22708,4690.00
1408,22728,4693.33
1409,22736,4696.67
1410,22744,4700.00
1411,22740,4703.33
1412,22744,4706.67
1413,22752,4710.00
1414,22764,4713.33
1415,22784,4716.67
1416,22808,4720.00
1417,22836,4723.33
1418,22864,4726.67
1419,22900,4730.00
1420,22932,4733.33
1421,22960,4736.67
1422,22992,4740.00
1423,23016,4743.33
1424,23044,4746.67
1425,23064,4750.00
1426,23084,4753.33
1427,23100,4756.67
1428,23120,4760.00
1429,23136,4763.33
1430,23148,4766.67
1431,23164,4770.00
1432,23184,4773.33
1433,23196,4776.67
1434,23220,4780.00
1435,23212,4783.33
1436,23140,4786.67
1437,22996,4790.00
1438,22816,4793.33
1439,22652,4796.67
1440,22532,4800.00
1441,22472,4803.33
1442,22460,4806.67
1443,22472,4810.00
1444,22492,4813.33
1445,22512,4816.67
1446,22528,4820.00
1447,22540,4823.33
1448,22564,4826.67
1449,22596,4830.00
1450,22632,4833.33
1451,22656,4836.67
1452,22672,4840.00
1453,22684,4843.33
1454,22684,4846.67
1455,22688,4850.00
1456,22692,4853.33
1457,22700,4856.67
1458,22720,4860.00
1459,22744,4863.33
1460,22772,4866.67
1461,22804,4870.00
1462,22840,4873.33
1463,22872,4876.67
1464,22904,4880.00
1465,22928,4883.33
1466,22956,4886.67
1467,22980,4890.00
1468,23004,4893.33
1469,23024,4896.67
1470,23040,4900.00
1471,23060,4903.33
1472,23080,4906.67
1473,23100,4910.00
1474,23120,4913.33
1475,23140,4916.67
1476,23160,4920.00
1477,23180,4923.33
1478,23204,4926.67
1479,23228,4930.00
1480,23244,4933.33
1481,23220,4936.67
1482,23120,4940.00
1483,22952,4943.33
1484,22764,4946.67
1485,22600,4950.00
1486,22504,4953.33
1487,22460,4956.67
1488,22456,4960.00
1489,22472,4963.33
1490,22496,4966.67
1491,22516,4970.00
1492,22528,4973.33
1493,22548,4976.67
1494,22568,4980.00
1495,22600,4983.33
1496,22628,4986.67
1497,22648,4990.00
1498,22660,4993.33
1499,22664,4996.67
1500,22664,5000.00
1501,22668,5003.33
1502,22680,5006.67
1503,22696,5010.00
1504,22720,5013.33
1505,22744,5016.67
1506,22776,5020.00
1507,22808,5023.33
1508,22840,5026.67
1509,22872,5030.00
1510,22896,5033.33
1511,22924,5036.67
1512,22948,5040.00
1513,22968,5043.33
1514,22988,5046.67
1515,23004,5050.00
1516,23028,5053.33
1517,23044,5056.67
1518,23060,5060.00
1519,23076,5063.33
1520,23096,5066.67
1521,23112,5070.00
1522,23132,5073.33
1523,23148,5076.67
1524,23168,5080.00
1525,23188,5083.33
1526,23208,5086.67
1527,23216,5090.00
1528,23168,5093.33
1529,23040,5096.67
1530,22868,5100.00
1531,22700,5103.33
1532,22568,5106.67
1533,22492,5110.00
1534,22472,5113.33
1535,22480,5116.67
1536,22508,5120.00
1537,22536,5123.33
1538,22552,5126.67
1539,22572,5130.00
1540,22600,5133.33
1541,22628,5136.67
1542,22656,5140.00
1543,22676,5143.33
1544,22688,5146.67
1545,22692,5150.00
1546,22696,5153.33
1547,22692,5156.67
1548,22700,5160.00
1549,22712,5163.33
1550,22724,5166.67
1551,22748,5170.00
1552,22772,5173.33
1553,22804,5176.67
1554,22836,5180.00
1555,22868,5183.33
1556,22900,5186.67
1557,22928,5190.00
1558,22956,5193.33
1559,22976,5196.67
1560,23000,5200.00
1561,23020,5203.33
1562,23036,5206.67
1563,23056,5210.00
1564,23068,5213.33
1565,23088,5216.67
1566,23104,5220.00
1567,23124,5223.33
1568,23144,5226.67
1569,23164,5230.00
1570,23184,5233.33
1571,23168,5236.67
1572,23084,5240.00
1573,22948,5243.33
1574,22780,5246.67
1575,22644,5250.00
1576,22560,5253.33
1577,22528,5256.67
1578,22536,5260.00
1579,22556,5263.33
1580,22588,5266.67
1581,22616,5270.00
1582,22648,5273.33
1583,22684,5276.67
1584,22720,5280.00
1585,22752,5283.33
1586,22776,5286.67
1587,22788,5290.00
1588,22788,5293.33
1589,22780,5296.67
1590,22776,5300.00
1591,22776,5303.33
1592,22780,5306.67
1593,22800,5310.00
1594,22824,5313.33
1595,22852,5316.67
1596,22884,5320.00
1597,22924,5323.33
1598,22960,5326.67
1599,22992,5330.00
1600,23020,5333.33
1601,23044,5336.67
1602,23068,5340.00
1603,23084,5343.33
1604,23096,5346.67
1605,23112,5350.00
1606,23124,5353.33
1607,23132,5356.67
1608,23148,5360.00
1609,23164,5363.33
1610,23168,5366.67
1611,23128,5370.00
1612,23016,5373.33
1613,22860,5376.67
1614,22696,5380.00
1615,22572,5383.33
1616,22496,5386.67
1617,22480,5390.00
1618,22492,5393.33
1619,22520,5396.67
1620,22556,5400.00
1621,22584,5403.33
1622,22608,5406.67
1623,22640,5410.00
1624,22672,5413.33
1625,22700,5416.67
1626,22716,5420.00
1627,22716,5423.33
1628,22712,5426.67
1629,22704,5430.00
1630,22704,5433.33
1631,22704,5436.67
1632,22720,5440.00
1633,22744,5443.33
1634,22772,5446.67
1635,22804,5450.00
1636,22840,5453.33
1637,22872,5456.67
1638,22904,5460.00
1639,22932,5463.33
1640,22960,5466.67
1641,22980,5470.00
1642,23000,5473.33
1643,23016,5476.67
1644,23036,5480.00
1645,23056,5483.33
1646,23056,5486.67
1647,23004,5490.00
1648,22884,5493.33
1649,22724,5496.67
1650,22568,5500.00
1651,22464,5503.33
1652,22412,5506.67
1653,22404,5510.00
1654,22424,5513.33
1655,22452,5516.67
1656,22472,5520.00
1657,22488,5523.33
1658,22508,5526.67
1659,22532,5530.00
1660,22564,5533.33
1661,22600,5536.67
1662,22628,5540.00
1663,22644,5543.33
1664,22648,5546.67
1665,22648,5550.00
1666,22648,5553.33
1667,22656,5556.67
1668,22668,5560.00
1669,22692,5563.33
1670,22720,5566.67
1671,22748,5570.00
1672,22780,5573.33
1673,22812,5576.67
1674,22844,5580.00
1675,22872,5583.33
1676,22896,5586.67
1677,22916,5590.00
1678,22932,5593.33
1679,22948,5596.67
1680,22960,5600.00
1681,22980,5603.33
1682,22992,5606.67
1683,22960,5610.00
1684,22852,5613.33
1685,22692,5616.67
1686,22532,5620.00
1687,22412,5623.33
1688,22348,5626.67
1689,22328,5630.00
1690,22336,5633.33
1691,22356,5636.67
1692,22376,5640.00
1693,22388,5643.33
1694,22400,5646.67
1695,22420,5650.00
1696,22452,5653.33
1697,22492,5656.67
1698,22528,5660.00
1699,22556,5663.33
1700,22572,5666.67
1701,22580,5670.00
1702,22588,5673.33
1703,22592,5676.67
1704,22604,5680.00
1705,22624,5683.33
1706,22656,5686.67
1707,22688,5690.00
1708,22720,5693.33
1709,22752,5696.67
1710,22792,5700.00
1711,22824,5703.33
1712,22852,5706.67
1713,22876,5710.00
1714,22900,5713.33
1715,22928,5716.67
1716,22948,5720.00
1717,22968,5723.33
1718,22992,5726.67
1719,23008,5730.00
1720,23024,5733.33
1721,23040,5736.67
1722,23056,5740.00
1723,23080,5743.33
1724,23100,5746.67
1725,23112,5750.00
1726,23084,5753.33
1727,22980,5756.67
1728,22812,5760.00
1729,22632,5763.33
1730,22492,5766.67
1731,22412,5770.00
1732,22380,5773.33
1733,22384,5776.67
1734,22400,5780.00
1735,22416,5783.33
1736,22424,5786.67
1737,22432,5790.00
1738,22448,5793.33
1739,22472,5796.67
1740,22516,5800.00
1741,22552,5803.33
1742,22584,5806.67
1743,22608,5810.00
1744,22620,5813.33
1745,22632,5816.67
1746,22636,5820.00
1747,22644,5823.33
1748,22664,5826.67
1749,22688,5830.00
1750,22712,5833.33
1751,22728,5836.67
1752,22760,5840.00
1753,22788,5843.33
1754,22816,5846.67
1755,22844,5850.00
1756,22868,5853.33
1757,22892,5856.67
1758,22916,5860.00
1759,22936,5863.33
1760,22952,5866.67
1761,22968,5870.00
1762,22988,5873.33
1763,23004,5876.67
1764,23020,5880.00
1765,23036,5883.33
1766,23056,5886.67
1767,23080,5890.00
1768,23100,5893.33
1769,23124,5896.67
1770,23144,5900.00
1771,23164,5903.33
1772,23184,5906.67
1773,23204,5910.00
1774,23184,5913.33
1775,23096,5916.67
1776,22932,5920.00
1777,22740,5923.33
1778,22576,5926.67
1779,22476,5930.00
1780,22436,5933.33
1781,22436,5936.67
1782,22452,5940.00
1783,22476,5943.33
1784,22492,5946.67
1785,22504,5950.00
1786,22516,5953.33
1787,22540,5956.67
1788,22572,5960.00
1789,22608,5963.33
1790,22636,5966.67
1791,22656,5970.00
1792,22664,5973.33
1793,22668,5976.67
1794,22676,5980.00
1795,22680,5983.33
1796,22700,5986.67
1797,22724,5990.00
1798,22748,5993.33
1799,22776,5996.67
1800,22812,6000.00
1801,22844,6003.33
1802,22876,6006.67
1803,22900,6010.00
1804,22928,6013.33
1805,22956,6016.67
1806,22976,6020.00
1807,22992,6023.33
1808,23012,6026.67
1809,23028,6030.00
1810,23044,6033.33
1811,23060,6036.67
1812,23072,6040.00
1813,23088,6043.33
1814,23104,6046.67
1815,23120,6050.00
1816,23136,6053.33
1817,23156,6056.67
1818,23180,6060.00
1819,23184,6063.33
1820,23140,6066.67
1821,23020,6070.00
1822,22856,6073.33
1823,22684,6076.67
1824,22560,6080.00
1825,22492,6083.33
1826,22476,6086.67
1827,22496,6090.00
1828,22520,6093.33
1829,22552,6096.67
1830,22568,6100.00
1831,22592,6103.33
1832,22620,6106.67
1833,22652,6110.00
1834,22684,6113.33
1835,22704,6116.67
1836,22712,6120.00
1837,22716,6123.33
1838,22712,6126.67
1839,22712,6130.00
1840,22716,6133.33
1841,22732,6136.67
1842,22748,6140.00
1843,22772,6143.33
1844,22800,6146.67
1845,22828,6150.00
1846,22860,6153.33
1847,22888,6156.67
1848,22916,6160.00
1849,22940,6163.33
1850,22968,6166.67
1851,22988,6170.00
1852,23008,6173.33
1853,23024,6176.67
1854,23044,6180.00
1855,23064,6183.33
1856,23080,6186.67
1857,23092,6190.00
1858,23108,6193.33
1859,23124,6196.67
1860,23140,6200.00
1861,23164,6203.33
1862,23184,6206.67
1863,23176,6210.00
1864,23092,6213.33
1865,22944,6216.67
1866,22764,6220.00
1867,22608,6223.33
1868,22508,6226.67
1869,22464,6230.00
1870,22468,6233.33
1871,22492,6236.67
1872,22524,6240.00
1873,22548,6243.33
1874,22568,6246.67
1875,22592,6250.00
1876,22624,6253.33
1877,22656,6256.67
1878,22684,6260.00
1879,22708,6263.33
1880,22716,6266.67
1881,22724,6270.00
1882,22724,6273.33
1883,22728,6276.67
1884,22740,6280.00
1885,22760,6283.33
1886,22784,6286.67
1887,22812,6290.00
1888,22844,6293.33
1889,22876,6296.67
1890,22908,6300.00
1891,22944,6303.33
1892,22976,6306.67
1893,23008,6310.00
1894,23032,6313.33
1895,23060,6316.67
1896,23080,6320.00
1897,23108,6323.33
1898,23128,6326.67
1899,23152,6330.00
1900,23168,6333.33
1901,23192,6336.67
1902,23208,6340.00
1903,23228,6343.33
1904,23248,6346.67
1905,23276,6350.00
1906,23300,6353.33
1907,23304,6356.67
1908,23252,6360.00
1909,23124,6363.33
1910,22944,6366.67
1911,22752,6370.00
1912,22604,6373.33
1913,22524,6376.67
1914,22508,6380.00
1915,22520,6383.33
1916,22548,6386.67
1917,22580,6390.00
1918,22600,6393.33
1919,22616,6396.67
1920,22640,6400.00
1921,22672,6403.33
1922,22704,6406.67
1923,22732,6410.00
1924,22752,6413.33
1925,22764,6416.67
1926,22768,6420.00
1927,22768,6423.33
1928,22768,6426.67
1929,22780,6430.00
1930,22796,6433.33
1931,22816,6436.67
1932,22844,6440.00
1933,22880,6443.33
1934,22916,6446.67
1935,22952,6450.00
1936,22984,6453.33
1937,23016,6456.67
1938,23044,6460.00
1939,23068,6463.33
1940,23100,6466.67
1941,23124,6470.00
1942,23144,6473.33
1943,23168,6476.67
1944,23192,6480.00
1945,23208,6483.33
1946,23232,6486.67
1947,23248,6490.00
1948,23268,6493.33
1949,23288,6496.67
1950,23316,6500.00
1951,23344,6503.33
1952,23364,6506.67
1953,23352,6510.00
1954,23256,6513.33
1955,23096,6516.67
1956,22904,6520.00
1957,22728,6523.33
1958,22608,6526.67
1959,22556,6530.00
1960,22552,6533.33
1961,22576,6536.67
1962,22608,6540.00
1963,22640,6543.33
1964,22664,6546.67
1965,22692,6550.00
1966,22724,6553.33
1967,22760,6556.67
1968,22788,6560.00
1969,22808,6563.33
1970,22824,6566.67
1971,22832,6570.00
1972,22824,6573.33
1973,22828,6576.67
1974,22836,6580.00
1975,22848,6583.33
1976,22872,6586.67
1977,22896,6590.00
1978,22928,6593.33
1979,22960,6596.67
1980,23000,6600.00
1981,23036,6603.33
1982,23068,6606.67
1983,23100,6610.00
1984,23124,6613.33
1985,23144,6616.67
1986,23164,6620.00
1987,23184,6623.33
1988,23212,6626.67
1989,23228,6630.00
1990,23244,6633.33
1991,23260,6636.67
1992,23280,6640.00
1993,23300,6643.33
1994,23320,6646.67
1995,23332,6650.00
1996,23292,6653.33
1997,23172,6656.67
1998,23008,6660.00
1999,22824,6663.33
2000,22676,6666.67
2001,22580,6670.00
2002,22552,6673.33
2003,22564,6676.67
2004,22592,6680.00
2005,22628,6683.33
2006,22660,6686.67
2007,22684,6690.00
2008,22720,6693.33
2009,22760,6696.67
2010,22788,6700.00
2011,22812,6703.33
2012,22824,6706.67
2013,22824,6710.00
2014,22820,6713.33
2015,22816,6716.67
2016,22820,6720.00
2017,22832,6723.33
2018,22852,6726.67
2019,22876,6730.00
2020,22912,6733.33
2021,22940,6736.67
2022,22976,6740.00
2023,23008,6743.33
2024,23044,6746.67
2025,23080,6750.00
2026,23108,6753.33
2027,23136,6756.67
2028,23160,6760.00
2029,23184,6763.33
2030,23204,6766.67
2031,23220,6770.00
2032,23244,6773.33
2033,23264,6776.67
2034,23264,6780.00
2035,23204,6783.33
2036,23068,6786.67
2037,22896,6790.00
2038,22720,6793.33
2039,22592,6796.67
2040,22532,6800.00
2041,22524,6803.33
2042,22548,6806.67
2043,22580,6810.00
2044,22616,6813.33
2045,22644,6816.67
2046,22672,6820.00
2047,22700,6823.33
2048,22736,6826.67
2049,22760,6830.00
2050,22776,6833.33
2051,22788,6836.67
2052,22780,6840.00
2053,22776,6843.33
2054,22776,6846.67
2055,22796,6850.00
2056,22812,6853.33
2057,22840,6856.67
2058,22876,6860.00
2059,22908,6863.33
2060,22948,6866.67
2061,22984,6870.00
2062,23020,6873.33
2063,23048,6876.67
2064,23076,6880.00
2065,23104,6883.33
2066,23128,6886.67
2067,23152,6890.00
2068,23168,6893.33
2069,23192,6896.67
2070,23220,6900.00
2071,23240,6903.33
2072,23252,6906.67
2073,23216,6910.00
2074,23104,6913.33
2075,22944,6916.67
2076,22756,6920.00
2077,22604,6923.33
2078,22512,6926.67
2079,22480,6930.00
2080,22488,6933.33
2081,22528,6936.67
2082,22580,6940.00
2083,22608,6943.33
2084,22620,6946.67
2085,22636,6950.00
2086,22660,6953.33
2087,22684,6956.67
2088,22708,6960.00
2089,22720,6963.33
2090,22724,6966.67
2091,22724,6970.00
2092,22724,6973.33
2093,22728,6976.67
2094,22744,6980.00
2095,22764,6983.33
2096,22796,6986.67
2097,22836,6990.00
2098,22872,6993.33
2099,22908,6996.67
2100,22944,7000.00
2101,22976,7003.33
2102,23004,7006.67
2103,23028,7010.00
2104,23056,7013.33
2105,23080,7016.67
2106,23096,7020.00
2107,23116,7023.33
2108,23136,7026.67
2109,23156,7030.00
2110,23176,7033.33
2111,23196,7036.67
2112,23204,7040.00
2113,23140,7043.33
2114,23000,7046.67
2115,22816,7050.00
2116,22632,7053.33
2117,22500,7056.67
2118,22432,7060.00
2119,22420,7063.33
2120,22444,7066.67
2121,22484,7070.00
2122,22528,7073.33
2123,22560,7076.67
2124,22592,7080.00
2125,22620,7083.33
2126,22656,7086.67
2127,22688,7090.00
2128,22704,7093.33
2129,22704,7096.67
2130,22700,7100.00
2131,22696,7103.33
2132,22700,7106.67
2133,22704,7110.00
2134,22712,7113.33
2135,22728,7116.67
2136,22756,7120.00
2137,22788,7123.33
2138,22820,7126.67
2139,22860,7130.00
2140,22892,7133.33
2141,22928,7136.67
2142,22956,7140.00
2143,22984,7143.33
2144,23016,7146.67
2145,23040,7150.00
2146,23060,7153.33
2147,23084,7156.67
2148,23100,7160.00
2149,23120,7163.33
2150,23140,7166.67
2151,23140,7170.00
2152,23064,7173.33
2153,22924,7176.67
2154,22756,7180.00
2155,22604,7183.33
2156,22504,7186.67
2157,22464,7190.00
2158,22468,7193.33
2159,22504,7196.67
2160,22552,7200.00
2161,22608,7203.33
2162,22660,7206.67
2163,22716,7210.00
2164,22768,7213.33
2165,22808,7216.67
2166,22824,7220.00
2167,22824,7223.33
2168,22816,7226.67
2169,22804,7230.00
2170,22788,7233.33
2171,22784,7236.67
2172,22788,7240.00
2173,22800,7243.33
2174,22820,7246.67
2175,22852,7250.00
2176,22892,7253.33
2177,22928,7256.67
2178,22964,7260.00
2179,23008,7263.33
2180,23040,7266.67
2181,23084,7270.00
2182,23116,7273.33
2183,23136,7276.67
2184,23148,7280.00
2185,23160,7283.33
2186,23172,7286.67
2187,23180,7290.00
2188,23144,7293.33
2189,23028,7296.67
2190,22864,7300.00
2191,22692,7303.33
2192,22560,7306.67
2193,22476,7310.00
2194,22456,7313.33
2195,22464,7316.67
2196,22488,7320.00
2197,22524,7323.33
2198,22568,7326.67
2199,22612,7330.00
2200,22656,7333.33
2201,22696,7336.67
2202,22732,7340.00
2203,22760,7343.33
2204,22772,7346.67
2205,22796,7350.00
2206,22816,7353.33
2207,22840,7356.67
2208,22860,7360.00
2209,22884,7363.33
2210,22908,7366.67
2211,22936,7370.00
2212,22956,7373.33
2213,22984,7376.67
2214,23020,7380.00
2215,23060,7383.33
2216,23088,7386.67
2217,23124,7390.00
2218,23148,7393.33
2219,23172,7396.67
2220,23196,7400.00
2221,23216,7403.33
2222,23240,7406.67
2223,23228,7410.00
2224,23136,7413.33
2225,22980,7416.67
2226,22804,7420.00
2227,22656,7423.33
2228,22556,7426.67
2229,22512,7430.00
2230,22520,7433.33
2231,22556,7436.67
2232,22600,7440.00
2233,22648,7443.33
2234,22704,7446.67
2235,22756,7450.00
2236,22808,7453.33
2237,22856,7456.67
2238,22884,7460.00
2239,22908,7463.33
2240,22916,7466.67
2241,22916,7470.00
2242,22920,7473.33
2243,22924,7476.67
2244,22932,7480.00
2245,22952,7483.33
2246,22980,7486.67
2247,23008,7490.00
2248,23036,7493.33
2249,23064,7496.67
2250,23100,7500.00
2251,23136,7503.33
2252,23172,7506.67
2253,23196,7510.00
2254,23224,7513.33
2255,23240,7516.67
2256,23260,7520.00
2257,23224,7523.33
2258,23112,7526.67
2259,22940,7530.00
2260,22764,7533.33
2261,22628,7536.67
2262,22540,7540.00
2263,22508,7543.33
2264,22512,7546.67
2265,22544,7550.00
2266,22584,7553.33
2267,22628,7556.67
2268,22672,7560.00
2269,22720,7563.33
2270,22772,7566.67
2271,22820,7570.00
2272,22848,7573.33
2273,22872,7576.67
2274,22884,7580.00
2275,22888,7583.33
2276,22888,7586.67
2277,22900,7590.00
2278,22908,7593.33
2279,22920,7596.67
2280,22940,7600.00
2281,22964,7603.33
2282,22996,7606.67
2283,23028,7610.00
2284,23056,7613.33
2285,23092,7616.67
2286,23124,7620.00
2287,23156,7623.33
2288,23188,7626.67
2289,23192,7630.00
2290,23128,7633.33
2291,23000,7636.67
2292,22836,7640.00
2293,22692,7643.33
2294,22592,7646.67
2295,22548,7650.00
2296,22548,7653.33
2297,22576,7656.67
2298,22612,7660.00
2299,22652,7663.33
2300,22696,7666.67
2301,22752,7670.00
2302,22804,7673.33
2303,22844,7676.67
2304,22876,7680.00
2305,22904,7683.33
2306,22916,7686.67
2307,22920,7690.00
2308,22924,7693.33
2309,22928,7696.67
2310,22936,7700.00
2311,22952,7703.33
2312,22972,7706.67
2313,22992,7710.00
2314,23020,7713.33
2315,23048,7716.67
2316,23076,7720.00
2317,23112,7723.33
2318,23144,7726.67
2319,23176,7730.00
2320,23204,7733.33
2321,23208,7736.67
2322,23148,7740.00
2323,23016,7743.33
2324,22852,7746.67
2325,22700,7750.00
2326,22592,7753.33
2327,22540,7756.67
2328,22532,7760.00
2329,22556,7763.33
2330,22584,7766.67
2331,22624,7770.00
2332,22664,7773.33
2333,22708,7776.67
2334,22752,7780.00
2335,22796,7783.33
2336,22828,7786.67
2337,22852,7790.00
2338,22868,7793.33
2339,22876,7796.67
2340,22884,7800.00
2341,22892,7803.33
2342,22908,7806.67
2343,22924,7810.00
2344,22944,7813.33
2345,22972,7816.67
2346,22996,7820.00
2347,23028,7823.33
2348,23064,7826.67
2349,23096,7830.00
2350,23124,7833.33
2351,23156,7836.67
2352,23188,7840.00
2353,23216,7843.33
2354,23240,7846.67
2355,23220,7850.00
2356,23136,7853.33
2357,22996,7856.67
2358,22844,7860.00
2359,22712,7863.33
2360,22628,7866.67
2361,22592,7870.00
2362,22596,7873.33
2363,22616,7876.67
2364,22648,7880.00
2365,22676,7883.33
2366,22708,7886.67
2367,22752,7890.00
2368,22792,7893.33
2369,22832,7896.67
2370,22864,7900.00
2371,22892,7903.33
2372,22912,7906.67
2373,22924,7910.00
2374,22936,7913.33
2375,22952,7916.67
2376,22964,7920.00
2377,22988,7923.33
2378,23008,7926.67
2379,23032,7930.00
2380,23064,7933.33
2381,23092,7936.67
2382,23128,7940.00
2383,23160,7943.33
2384,23200,7946.67
2385,23232,7950.00
2386,23268,7953.33
2387,23300,7956.67
2388,23336,7960.00
2389,23368,7963.33
2390,23392,7966.67
2391,23372,7970.00
2392,23304,7973.33
2393,23192,7976.67
2394,23072,7980.00
2395,22964,7983.33
2396,22888,7986.67
2397,22852,7990.00
2398,22836,7993.33
2399,22852,7996.67
2400,22868,8000.00
2401,22896,8003.33
2402,22928,8006.67
2403,22964,8010.00
2404,23004,8013.33
2405,23040,8016.67
2406,23068,8020.00
2407,23092,8023.33
2408,23112,8026.67
2409,23124,8030.00
2410,23140,8033.33
2411,23160,8036.67
2412,23180,8040.00
2413,23204,8043.33
2414,23236,8046.67
2415,23268,8050.00
2416,23296,8053.33
2417,23324,8056.67
2418,23360,8060.00
2419,23396,8063.33
2420,23432,8066.67
2421,23464,8070.00
2422,23496,8073.33
2423,23528,8076.67
2424,23560,8080.00
2425,23588,8083.33
2426,23620,8086.67
2427,23652,8090.00
2428,23680,8093.33
2429,23708,8096.67
2430,23740,8100.00
2431,23768,8103.33
2432,23796,8106.67
2433,23792,8110.00
2434,23744,8113.33
2435,23664,8116.67
2436,23564,8120.00
2437,23468,8123.33
2438,23400,8126.67
2439,23352,8130.00
2440,23336,8133.33
2441,23332,8136.67
2442,23340,8140.00
2443,23352,8143.33
2444,23372,8146.67
2445,23396,8150.00
2446,23424,8153.33
2447,23444,8156.67
2448,23464,8160.00
2449,23480,8163.33
2450,23492,8166.67
2451,23500,8170.00
2452,23508,8173.33
2453,23520,8176.67
2454,23540,8180.00
2455,23552,8183.33
2456,23572,8186.67
2457,23596,8190.00
2458,23620,8193.33
2459,23648,8196.67
2460,23676,8200.00
2461,23704,8203.33
2462,23732,8206.67
2463,23760,8210.00
2464,23792,8213.33
2465,23816,8216.67
2466,23844,8220.00
2467,23868,8223.33
2468,23896,8226.67
2469,23920,8230.00
2470,23944,8233.33
2471,23964,8236.67
2472,23988,8240.00
2473,24012,8243.33
2474,24028,8246.67
2475,24016,8250.00
2476,23968,8253.33
2477,23892,8256.67
2478,23796,8260.00
2479,23712,8263.33
2480,23648,8266.67
2481,23604,8270.00
2482,23588,8273.33
2483,23584,8276.67
2484,23588,8280.00
2485,23596,8283.33
2486,23608,8286.67
2487,23628,8290.00
2488,23648,8293.33
2489,23664,8296.67
2490,23684,8300.00
2491,23692,8303.33
2492,23696,8306.67
2493,23708,8310.00
2494,23708,8313.33
2495,23720,8316.67
2496,23732,8320.00
2497,23748,8323.33
2498,23768,8326.67
2499,23784,8330.00
2500,23808,8333.33
2501,23832,8336.67
2502,23856,8340.00
2503,23880,8343.33
2504,23904,8346.67
2505,23928,8350.00
2506,23956,8353.33
2507,23984,8356.67
2508,24004,8360.00
2509,24028,8363.33
2510,24056,8366.67
2511,24072,8370.00
2512,24096,8373.33
2513,24116,8376.67
2514,24136,8380.00
2515,24156,8383.33
2516,24180,8386.67
2517,24200,8390.00
2518,24220,8393.33
2519,24216,8396.67
2520,24172,8400.00
2521,24096,8403.33
2522,23996,8406.67
2523,23896,8410.00
2524,23804,8413.33
2525,23736,8416.67
2526,23700,8420.00
2527,23676,8423.33
2528,23664,8426.67
2529,23664,8430.00
2530,23664,8433.33
2531,23672,8436.67
2532,23684,8440.00
2533,23700,8443.33
2534,23708,8446.67
2535,23720,8450.00
2536,23720,8453.33
2537,23724,8456.67
2538,23720,8460.00
2539,23720,8463.33
2540,23724,8466.67
2541,23732,8470.00
2542,23740,8473.33
2543,23760,8476.67
2544,23776,8480.00
2545,23796,8483.33
2546,23816,8486.67
2547,23836,8490.00
2548,23860,8493.33
2549,23880,8496.67
2550,23904,8500.00
2551,23924,8503.33
2552,23940,8506.67
2553,23960,8510.00
2554,23980,8513.33
2555,23996,8516.67
2556,24016,8520.00
2557,24036,8523.33
2558,24056,8526.67
2559,24080,8530.00
2560,24100,8533.33
2561,24116,8536.67
2562,24140,8540.00
2563,24148,8543.33
2564,24128,8546.67
2565,24068,8550.00
2566,23972,8553.33
2567,23860,8556.67
2568,23756,8560.00
2569,23676,8563.33
2570,23616,8566.67
2571,23588,8570.00
2572,23576,8573.33
2573,23572,8576.67
2574,23572,8580.00
2575,23576,8583.33
2576,23588,8586.67
2577,23600,8590.00
2578,23612,8593.33
2579,23620,8596.67
2580,23620,8600.00
2581,23620,8603.33
2582,23620,8606.67
2583,23616,8610.00
2584,23616,8613.33
2585,23616,8616.67
2586,23628,8620.00
2587,23640,8623.33
2588,23660,8626.67
2589,23676,8630.00
2590,23696,8633.33
2591,23716,8636.67
2592,23740,8640.00
2593,23760,8643.33
2594,23780,8646.67
2595,23800,8650.00
2596,23820,8653.33
2597,23840,8656.67
2598,23860,8660.00
2599,23876,8663.33
2600,23900,8666.67
2601,23916,8670.00
2602,23936,8673.33
2603,23952,8676.67
2604,23968,8680.00
2605,23984,8683.33
2606,24000,8686.67
2607,23988,8690.00
2608,23940,8693.33
2609,23856,8696.67
2610,23744,8700.00
2611,23636,8703.33
2612,23548,8706.67
2613,23488,8710.00
2614,23460,8713.33
2615,23448,8716.67
2616,23452,8720.00
2617,23460,8723.33
2618,23476,8726.67
2619,23496,8730.00
2620,23516,8733.33
2621,23532,8736.67
2622,23540,8740.00
2623,23544,8743.33
2624,23540,8746.67
2625,23536,8750.00
2626,23528,8753.33
2627,23528,8756.67
2628,23536,8760.00
2629,23544,8763.33
2630,23556,8766.67
2631,23572,8770.00
2632,23592,8773.33
2633,23612,8776.67
2634,23628,8780.00
2635,23652,8783.33
2636,23668,8786.67
2637,23688,8790.00
2638,23708,8793.33
2639,23728,8796.67
2640,23740,8800.00
2641,23756,8803.33
2642,23772,8806.67
2643,23788,8810.00
2644,23800,8813.33
2645,23796,8816.67
2646,23752,8820.00
2647,23660,8823.33
2648,23536,8826.67
2649,23416,8830.00
2650,23312,8833.33
2651,23240,8836.67
2652,23200,8840.00
2653,23184,8843.33
2654,23180,8846.67
2655,23180,8850.00
2656,23188,8853.33
2657,23204,8856.67
2658,23224,8860.00
2659,23244,8863.33
2660,23260,8866.67
2661,23268,8870.00
2662,23272,8873.33
2663,23272,8876.67
2664,23268,8880.00
2665,23268,8883.33
2666,23272,8886.67
2667,23280,8890.00
2668,23296,8893.33
2669,23312,8896.67
2670,23332,8900.00
2671,23356,8903.33
2672,23380,8906.67
2673,23408,8910.00
2674,23436,8913.33
2675,23460,8916.67
2676,23488,8920.00
2677,23508,8923.33
2678,23520,8926.67
2679,23536,8930.00
2680,23556,8933.33
2681,23576,8936.67
2682,23576,8940.00
2683,23528,8943.33
2684,23432,8946.67
2685,23296,8950.00
2686,23156,8953.33
2687,23044,8956.67
2688,22964,8960.00
2689,22924,8963.33
2690,22908,8966.67
2691,22904,8970.00
2692,22912,8973.33
2693,22924,8976.67
2694,22940,8980.00
2695,22968,8983.33
2696,23000,8986.67
2697,23024,8990.00
2698,23048,8993.33
2699,23060,8996.67
2700,23068,9000.00
2701,23072,9003.33
2702,23076,9006.67
2703,23084,9010.00
2704,23096,9013.33
2705,23116,9016.67
2706,23136,9020.00
2707,23160,9023.33
2708,23188,9026.67
2709,23216,9030.00
2710,23244,9033.33
2711,23276,9036.67
2712,23300,9040.00
2713,23320,9043.33
2714,23344,9046.67
2715,23368,9050.00
2716,23388,9053.33
2717,23412,9056.67
2718,23420,9060.00
2719,23376,9063.33
2720,23280,9066.67
2721,23144,9070.00
2722,23000,9073.33
2723,22880,9076.67
2724,22812,9080.00
2725,22788,9083.33
2726,22780,9086.67
2727,22796,9090.00
2728,22816,9093.33
2729,22836,9096.67
2730,22864,9100.00
2731,22900,9103.33
2732,22936,9106.67
2733,22968,9110.00
2734,22988,9113.33
2735,23004,9116.67
2736,23008,9120.00
2737,23012,9123.33
2738,23012,9126.67
2739,23020,9130.00
2740,23028,9133.33
2741,23048,9136.67
2742,23068,9140.00
2743,23096,9143.33
2744,23120,9146.67
2745,23144,9150.00
2746,23168,9153.33
2747,23196,9156.67
2748,23224,9160.00
2749,23248,9163.33
2750,23272,9166.67
2751,23296,9170.00
2752,23320,9173.33
2753,23332,9176.67
2754,23352,9180.00
2755,23376,9183.33
2756,23396,9186.67
2757,23416,9190.00
2758,23432,9193.33
2759,23456,9196.67
2760,23472,9200.00
2761,23488,9203.33
2762,23512,9206.67
2763,23532,9210.00
2764,23556,9213.33
2765,23572,9216.67
2766,23576,9220.00
2767,23516,9223.33
2768,23384,9226.67
2769,23204,9230.00
2770,23020,9233.33
2771,22872,9236.67
2772,22784,9240.00
2773,22744,9243.33
2774,22744,9246.67
2775,22760,9250.00
2776,22780,9253.33
2777,22800,9256.67
2778,22828,9260.00
2779,22856,9263.33
2780,22888,9266.67
2781,22912,9270.00
2782,22932,9273.33
2783,22940,9276.67
2784,22948,9280.00
2785,22948,9283.33
2786,22952,9286.67
2787,22956,9290.00
2788,22964,9293.33
2789,22980,9296.67
2790,23000,9300.00
2791,23016,9303.33
2792,23044,9306.67
2793,23072,9310.00
2794,23100,9313.33
2795,23128,9316.67
2796,23156,9320.00
2797,23180,9323.33
2798,23200,9326.67
2799,23220,9330.00
2800,23240,9333.33
2801,23256,9336.67
2802,23272,9340.00
2803,23288,9343.33
2804,23308,9346.67
2805,23324,9350.00
2806,23344,9353.33
2807,23364,9356.67
2808,23384,9360.00
2809,23404,9363.33
2810,23428,9366.67
2811,23448,9370.00
2812,23468,9373.33
2813,23488,9376.67
2814,23512,9380.00
2815,23528,9383.33
2816,23548,9386.67
2817,23572,9390.00
2818,23584,9393.33
2819,23560,9396.67
2820,23468,9400.00
2821,23312,9403.33
2822,23128,9406.67
2823,22956,9410.00
2824,22836,9413.33
2825,22772,9416.67
2826,22756,9420.00
2827,22772,9423.33
2828,22800,9426.67
2829,22836,9430.00
2830,22872,9433.33
2831,22912,9436.67
2832,22948,9440.00
2833,22972,9443.33
2834,22992,9446.67
2835,22996,9450.00
2836,23000,9453.33
2837,22996,9456.67
2838,22996,9460.00
2839,22996,9463.33
2840,23000,9466.67
2841,23016,9470.00
2842,23032,9473.33
2843,23056,9476.67
2844,23076,9480.00
2845,23108,9483.33
2846,23136,9486.67
2847,23168,9490.00
2848,23196,9493.33
2849,23220,9496.67
2850,23244,9500.00
2851,23268,9503.33
2852,23284,9506.67
2853,23304,9510.00
2854,23320,9513.33
2855,23336,9516.67
2856,23352,9520.00
2857,23368,9523.33
2858,23388,9526.67
2859,23408,9530.00
2860,23428,9533.33
2861,23448,9536.67
2862,23472,9540.00
2863,23492,9543.33
2864,23516,9546.67
2865,23544,9550.00
2866,23564,9553.33
2867,23564,9556.67
2868,23508,9560.00
2869,23384,9563.33
2870,23212,9566.67
2871,23032,9570.00
2872,22876,9573.33
2873,22784,9576.67
2874,22752,9580.00
2875,22752,9583.33
2876,22776,9586.67
2877,22808,9590.00
2878,22844,9593.33
2879,22880,9596.67
2880,22920,9600.00
2881,22956,9603.33
2882,22980,9606.67
2883,23004,9610.00
2884,23016,9613.33
2885,23016,9616.67
2886,23012,9620.00
2887,23016,9623.33
2888,23020,9626.67
2889,23028,9630.00
2890,23040,9633.33
2891,23064,9636.67
2892,23088,9640.00
2893,23120,9643.33
2894,23152,9646.67
2895,23180,9650.00
2896,23208,9653.33
2897,23240,9656.67
2898,23272,9660.00
2899,23296,9663.33
2900,23316,9666.67
2901,23336,9670.00
2902,23360,9673.33
2903,23376,9676.67
2904,23396,9680.00
2905,23416,9683.33
2906,23436,9686.67
2907,23452,9690.00
2908,23476,9693.33
2909,23496,9696.67
2910,23516,9700.00
2911,23540,9703.33
2912,23548,9706.67
2913,23500,9710.00
2914,23384,9713.33
2915,23224,9716.67
2916,23044,9720.00
2917,22892,9723.33
2918,22792,9726.67
2919,22748,9730.00
2920,22748,9733.33
2921,22768,9736.67
2922,22800,9740.00
2923,22836,9743.33
2924,22872,9746.67
2925,22912,9750.00
2926,22948,9753.33
2927,22980,9756.67
2928,23004,9760.00
2929,23016,9763.33
2930,23024,9766.67
2931,23024,9770.00
2932,23020,9773.33
2933,23024,9776.67
2934,23032,9780.00
2935,23044,9783.33
2936,23056,9786.67
2937,23080,9790.00
2938,23104,9793.33
2939,23132,9796.67
2940,23160,9800.00
2941,23188,9803.33
2942,23220,9806.67
2943,23252,9810.00
2944,23276,9813.33
2945,23300,9816.67
2946,23324,9820.00
2947,23340,9823.33
2948,23360,9826.67
2949,23380,9830.00
2950,23400,9833.33
2951,23412,9836.67
2952,23392,9840.00
2953,23312,9843.33
2954,23172,9846.67
2955,23004,9850.00
2956,22844,9853.33
2957,22728,9856.67
2958,22668,9860.00
2959,22660,9863.33
2960,22684,9866.67
2961,22716,9870.00
2962,22752,9873.33
2963,22792,9876.67
2964,22828,9880.00
2965,22864,9883.33
2966,22900,9886.67
2967,22928,9890.00
2968,22944,9893.33
2969,22952,9896.67
2970,22960,9900.00
2971,22964,9903.33
2972,22964,9906.67
2973,22972,9910.00
2974,22984,9913.33
2975,23004,9916.67
2976,23028,9920.00
2977,23052,9923.33
2978,23088,9926.67
2979,23116,9930.00
2980,23144,9933.33
2981,23176,9936.67
2982,23200,9940.00
2983,23224,9943.33
2984,23248,9946.67
2985,23272,9950.00
2986,23296,9953.33
2987,23312,9956.67
2988,23280,9960.00
2989,23188,9963.33
2990,23044,9966.67
2991,22880,9970.00
2992,22744,9973.33
2993,22656,9976.67
2994,22624,9980.00
2995,22632,9983.33
2996,22660,9986.67
2997,22696,9990.00
2998,22732,9993.33
2999,22772,9996.67
3000,22816,10000.00
3001,22852,10003.33
3002,22888,10006.67
3003,22908,10010.00
3004,22920,10013.33
3005,22920,10016.67
3006,22916,10020.00
3007,22912,10023.33
3008,22916,10026.67
3009,22924,10030.00
3010,22940,10033.33
3011,22960,10036.67
3012,22984,10040.00
3013,23008,10043.33
3014,23044,10046.67
3015,23064,10050.00
3016,23088,10053.33
3017,23116,10056.67
3018,23144,10060.00
3019,23168,10063.33
3020,23188,10066.67
3021,23176,10070.00
3022,23096,10073.33
3023,22960,10076.67
3024,22800,10080.00
3025,22652,10083.33
3026,22560,10086.67
3027,22524,10090.00
3028,22524,10093.33
3029,22548,10096.67
3030,22584,10100.00
3031,22612,10103.33
3032,22644,10106.67
3033,22688,10110.00
3034,22728,10113.33
3035,22760,10116.67
3036,22784,10120.00
3037,22804,10123.33
3038,22812,10126.67
3039,22816,10130.00
3040,22816,10133.33
3041,22824,10136.67
3042,22832,10140.00
3043,22848,10143.33
3044,22876,10146.67
3045,22896,10150.00
3046,22928,10153.33
3047,22956,10156.67
3048,22988,10160.00
3049,23012,10163.33
3050,23036,10166.67
3051,23060,10170.00
3052,23088,10173.33
3053,23104,10176.67
3054,23128,10180.00
3055,23148,10183.33
3056,23152,10186.67
3057,23100,10190.00
3058,22972,10193.33
3059,22804,10196.67
3060,22632,10200.00
3061,22508,10203.33
3062,22448,10206.67
3063,22436,10210.00
3064,22452,10213.33
3065,22480,10216.67
3066,22504,10220.00
3067,22524,10223.33
3068,22544,10226.67
3069,22576,10230.00
3070,22612,10233.33
3071,22640,10236.67
3072,22668,10240.00
3073,22684,10243.33
3074,22700,10246.67
3075,22708,10250.00
3076,22716,10253.33
3077,22724,10256.67
3078,22736,10260.00
3079,22752,10263.33
3080,22776,10266.67
3081,22804,10270.00
3082,22832,10273.33
3083,22860,10276.67
3084,22888,10280.00
3085,22916,10283.33
3086,22940,10286.67
3087,22968,10290.00
3088,22988,10293.33
3089,23016,10296.67
3090,23032,10300.00
3091,23052,10303.33
3092,23068,10306.67
3093,23088,10310.00
3094,23108,10313.33
3095,23128,10316.67
3096,23132,10320.00
3097,23092,10323.33
3098,22968,10326.67
3099,22784,10330.00
3100,22608,10333.33
3101,22472,10336.67
3102,22408,10340.00
3103,22396,10343.33
3104,22412,10346.67
3105,22440,10350.00
3106,22464,10353.33
3107,22488,10356.67
3108,22512,10360.00
3109,22544,10363.33
3110,22580,10366.67
3111,22616,10370.00
3112,22648,10373.33
3113,22668,10376.67
3114,22676,10380.00
3115,22688,10383.33
3116,22692,10386.67
3117,22704,10390.00
3118,22716,10393.33
3119,22732,10396.67
3120,22760,10400.00
3121,22780,10403.33
3122,22808,10406.67
3123,22832,10410.00
3124,22860,10413.33
3125,22888,10416.67
3126,22916,10420.00
3127,22936,10423.33
3128,22964,10426.67
3129,22980,10430.00
3130,23000,10433.33
3131,23020,10436.67
3132,23036,10440.00
3133,23056,10443.33
3134,23072,10446.67
3135,23088,10450.00
3136,23108,10453.33
3137,23124,10456.67
3138,23140,10460.00
3139,23160,10463.33
3140,23184,10466.67
3141,23200,10470.00
3142,23224,10473.33
3143,23244,10476.67
3144,23260,10480.00
3145,23284,10483.33
3146,23300,10486.67
3147,23292,10490.00
3148,23200,10493.33
3149,23032,10496.67
3150,22820,10500.00
3151,22632,10503.33
3152,22508,10506.67
3153,22456,10510.00
3154,22452,10513.33
3155,22476,10516.67
3156,22512,10520.00
3157,22536,10523.33
3158,22564,10526.67
3159,22588,10530.00
3160,22620,10533.33
3161,22652,10536.67
3162,22676,10540.00
3163,22696,10543.33
3164,22708,10546.67
3165,22712,10550.00
3166,22716,10553.33
3167,22724,10556.67
3168,22736,10560.00
3169,22748,10563.33
3170,22764,10566.67
3171,22792,10570.00
3172,22824,10573.33
3173,22852,10576.67
3174,22876,10580.00
3175,22908,10583.33
3176,22932,10586.67
3177,22956,10590.00
3178,22976,10593.33
3179,23000,10596.67
3180,23016,10600.00
3181,23036,10603.33
3182,23052,10606.67
3183,23072,10610.00
3184,23084,10613.33
3185,23104,10616.67
3186,23116,10620.00
3187,23136,10623.33
3188,23148,10626.67
3189,23164,10630.00
3190,23180,10633.33
3191,23204,10636.67
3192,23224,10640.00
3193,23240,10643.33
3194,23212,10646.67
3195,23116,10650.00
3196,22948,10653.33
3197,22772,10656.67
3198,22624,10660.00
3199,22532,10663.33
3200,22504,10666.67
3201,22516,10670.00
3202,22552,10673.33
3203,22596,10676.67
3204,22636,10680.00
3205,22680,10683.33
3206,22720,10686.67
3207,22756,10690.00
3208,22784,10693.33
3209,22800,10696.67
3210,22804,10700.00
3211,22800,10703.33
3212,22796,10706.67
3213,22796,10710.00
3214,22804,10713.33
3215,22816,10716.67
3216,22832,10720.00
3217,22852,10723.33
3218,22876,10726.67
3219,22908,10730.00
3220,22932,10733.33
3221,22964,10736.67
3222,22996,10740.00
3223,23020,10743.33
3224,23040,10746.67
3225,23068,10750.00
3226,23088,10753.33
3227,23112,10756.67
3228,23128,10760.00
3229,23144,10763.33
3230,23164,10766.67
3231,23176,10770.00
3232,23192,10773.33
3233,23204,10776.67
3234,23224,10780.00
3235,23240,10783.33
3236,23244,10786.67
3237,23200,10790.00
3238,23092,10793.33
3239,22928,10796.67
3240,22760,10800.00
3241,22624,10803.33
3242,22544,10806.67
3243,22520,10810.00
3244,22528,10813.33
3245,22560,10816.67
3246,22604,10820.00
3247,22644,10823.33
3248,22688,10826.67
3249,22728,10830.00
3250,22764,10833.33
3251,22792,10836.67
3252,22796,10840.00
3253,22792,10843.33
3254,22780,10846.67
3255,22760,10850.00
3256,22748,10853.33
3257,22744,10856.67
3258,22748,10860.00
3259,22768,10863.33
3260,22792,10866.67
3261,22824,10870.00
3262,22856,10873.33
3263,22888,10876.67
3264,22920,10880.00
3265,22956,10883.33
3266,22980,10886.67
3267,23004,10890.00
3268,23024,10893.33
3269,23044,10896.67
3270,23060,10900.00
3271,23076,10903.33
3272,23088,10906.67
3273,23112,10910.00
3274,23128,10913.33
3275,23112,10916.67
3276,23028,10920.00
3277,22880,10923.33
3278,22700,10926.67
3279,22552,10930.00
3280,22456,10933.33
3281,22420,10936.67
3282,22428,10940.00
3283,22452,10943.33
3284,22488,10946.67
3285,22520,10950.00
3286,22552,10953.33
3287,22576,10956.67
3288,22612,10960.00
3289,22640,10963.33
3290,22664,10966.67
3291,22688,10970.00
3292,22696,10973.33
3293,22700,10976.67
3294,22704,10980.00
3295,22708,10983.33
3296,22720,10986.67
3297,22740,10990.00
3298,22768,10993.33
3299,22796,10996.67
3300,22828,11000.00
3301,22860,11003.33
3302,22892,11006.67
3303,22928,11010.00
3304,22960,11013.33
3305,22984,11016.67
3306,23012,11020.00
3307,23036,11023.33
3308,23060,11026.67
3309,23080,11030.00
3310,23100,11033.33
3311,23124,11036.67
3312,23144,11040.00
3313,23160,11043.33
3314,23140,11046.67
3315,23044,11050.00
3316,22876,11053.33
3317,22688,11056.67
3318,22524,11060.00
3319,22428,11063.33
3320,22388,11066.67
3321,22388,11070.00
3322,22412,11073.33
3323,22440,11076.67
3324,22464,11080.00
3325,22488,11083.33
3326,22508,11086.67
3327,22544,11090.00
3328,22580,11093.33
3329,22612,11096.67
3330,22640,11100.00
3331,22660,11103.33
3332,22668,11106.67
3333,22680,11110.00
3334,22688,11113.33
3335,22704,11116.67
3336,22716,11120.00
3337,22740,11123.33
3338,22764,11126.67
3339,22800,11130.00
3340,22828,11133.33
3341,22864,11136.67
3342,22900,11140.00
3343,22928,11143.33
3344,22960,11146.67
3345,22984,11150.00
3346,23012,11153.33
3347,23036,11156.67
3348,23056,11160.00
3349,23072,11163.33
3350,23088,11166.67
3351,23108,11170.00
3352,23128,11173.33
3353,23152,11176.67
3354,23168,11180.00
3355,23156,11183.33
3356,23060,11186.67
3357,22896,11190.00
3358,22700,11193.33
3359,22532,11196.67
3360,22424,11200.00
3361,22372,11203.33
3362,22368,11206.67
3363,22388,11210.00
3364,22416,11213.33
3365,22440,11216.67
3366,22456,11220.00
3367,22484,11223.33
3368,22516,11226.67
3369,22552,11230.00
3370,22588,11233.33
3371,22616,11236.67
3372,22640,11240.00
3373,22660,11243.33
3374,22664,11246.67
3375,22672,11250.00
3376,22684,11253.33
3377,22700,11256.67
3378,22716,11260.00
3379,22740,11263.33
3380,22768,11266.67
3381,22800,11270.00
3382,22832,11273.33
3383,22860,11276.67
3384,22892,11280.00
3385,22920,11283.33
3386,22944,11286.67
3387,22960,11290.00
3388,22980,11293.33
3389,22996,11296.67
3390,23016,11300.00
3391,23032,11303.33
3392,23056,11306.67
3393,23072,11310.00
3394,23048,11313.33
3395,22952,11316.67
3396,22796,11320.00
3397,22608,11323.33
3398,22452,11326.67
3399,22368,11330.00
3400,22336,11333.33
3401,22340,11336.67
3402,22372,11340.00
3403,22396,11343.33
3404,22428,11346.67
3405,22448,11350.00
3406,22476,11353.33
3407,22504,11356.67
3408,22532,11360.00
3409,22560,11363.33
3410,22572,11366.67
3411,22588,11370.00
3412,22596,11373.33
3413,22604,11376.67
3414,22616,11380.00
3415,22632,11383.33
3416,22652,11386.67
3417,22676,11390.00
3418,22704,11393.33
3419,22732,11396.67
3420,22768,11400.00
3421,22800,11403.33
3422,22828,11406.67
3423,22856,11410.00
3424,22884,11413.33
3425,22908,11416.67
3426,22932,11420.00
3427,22956,11423.33
3428,22976,11426.67
3429,22992,11430.00
3430,23012,11433.33
3431,23032,11436.67
3432,23048,11440.00
3433,23068,11443.33
3434,23088,11446.67
3435,23108,11450.00
3436,23128,11453.33
3437,23152,11456.67
3438,23176,11460.00
3439,23176,11463.33
3440,23104,11466.67
3441,22952,11470.00
3442,22756,11473.33
3443,22576,11476.67
3444,22452,11480.00
3445,22392,11483.33
3446,22396,11486.67
3447,22424,11490.00
3448,22464,11493.33
3449,22508,11496.67
3450,22544,11500.00
3451,22580,11503.33
3452,22620,11506.67
3453,22652,11510.00
3454,22676,11513.33
3455,22696,11516.67
3456,22704,11520.00
3457,22716,11523.33
3458,22716,11526.67
3459,22724,11530.00
3460,22732,11533.33
3461,22752,11536.67
3462,22772,11540.00
3463,22800,11543.33
3464,22828,11546.67
3465,22860,11550.00
3466,22888,11553.33
3467,22920,11556.67
3468,22952,11560.00
3469,22980,11563.33
3470,23008,11566.67
3471,23032,11570.00
3472,23056,11573.33
3473,23084,11576.67
3474,23104,11580.00
3475,23124,11583.33
3476,23144,11586.67
3477,23168,11590.00
3478,23188,11593.33
3479,23204,11596.67
3480,23228,11600.00
3481,23248,11603.33
3482,23268,11606.67
3483,23292,11610.00
3484,23316,11613.33
3485,23332,11616.67
3486,23320,11620.00
3487,23228,11623.33
3488,23072,11626.67
3489,22880,11630.00
3490,22700,11633.33
3491,22580,11636.67
3492,22524,11640.00
3493,22524,11643.33
3494,22552,11646.67
3495,22600,11650.00
3496,22648,11653.33
3497,22700,11656.67
3498,22748,11660.00
3499,22796,11663.33
3500,22832,11666.67
3501,22852,11670.00
3502,22860,11673.33
3503,22864,11676.67
3504,22860,11680.00
3505,22860,11683.33
3506,22860,11686.67
3507,22872,11690.00
3508,22892,11693.33
3509,22916,11696.67
3510,22944,11700.00
3511,22972,11703.33
3512,23004,11706.67
3513,23036,11710.00
3514,23064,11713.33
3515,23096,11716.67
3516,23124,11720.00
3517,23152,11723.33
3518,23176,11726.67
3519,23200,11730.00
3520,23220,11733.33
3521,23244,11736.67
3522,23260,11740.00
3523,23280,11743.33
3524,23296,11746.67
3525,23316,11750.00
3526,23340,11753.33
3527,23360,11756.67
3528,23376,11760.00
3529,23348,11763.33
3530,23248,11766.67
3531,23088,11770.00
3532,22900,11773.33
3533,22740,11776.67
3534,22632,11780.00
3535,22584,11783.33
3536,22584,11786.67
3537,22620,11790.00
3538,22664,11793.33
3539,22716,11796.67
3540,22768,11800.00
3541,22828,11803.33
3542,22876,11806.67
3543,22908,11810.00
3544,22928,11813.33
3545,22936,11816.67
3546,22936,11820.00
3547,22928,11823.33
3548,22928,11826.67
3549,22932,11830.00
3550,22944,11833.33
3551,22960,11836.67
3552,22984,11840.00
3553,23012,11843.33
3554,23036,11846.67
3555,23068,11850.00
3556,23100,11853.33
3557,23132,11856.67
3558,23156,11860.00
3559,23184,11863.33
3560,23212,11866.67
3561,23236,11870.00
3562,23260,11873.33
3563,23288,11876.67
3564,23312,11880.00
3565,23336,11883.33
3566,23360,11886.67
3567,23344,11890.00
3568,23268,11893.33
3569,23132,11896.67
3570,22960,11900.00
3571,22796,11903.33
3572,22680,11906.67
3573,22620,11910.00
3574,22604,11913.33
3575,22628,11916.67
3576,22668,11920.00
3577,22720,11923.33
3578,22772,11926.67
3579,22828,11930.00
3580,22880,11933.33
3581,22920,11936.67
3582,22944,11940.00
3583,22956,11943.33
3584,22956,11946.67
3585,22948,11950.00
3586,22944,11953.33
3587,22944,11956.67
3588,22952,11960.00
3589,22964,11963.33
3590,22984,11966.67
3591,23008,11970.00
3592,23040,11973.33
3593,23068,11976.67
3594,23096,11980.00
3595,23128,11983.33
3596,23160,11986.67
3597,23192,11990.00
3598,23220,11993.33
3599,23240,11996.67
3600,23268,12000.00
3601,23292,12003.33
3602,23308,12006.67
3603,23276,12010.00
3604,23180,12013.33
3605,23032,12016.67
3606,22868,12020.00
3607,22728,12023.33
3608,22640,12026.67
3609,22608,12030.00
3610,22616,12033.33
3611,22652,12036.67
3612,22700,12040.00
3613,22756,12043.33
3614,22812,12046.67
3615,22868,12050.00
3616,22912,12053.33
3617,22936,12056.67
3618,22952,12060.00
3619,22948,12063.33
3620,22940,12066.67
3621,22936,12070.00
3622,22932,12073.33
3623,22936,12076.67
3624,22944,12080.00
3625,22964,12083.33
3626,22988,12086.67
3627,23016,12090.00
3628,23040,12093.33
3629,23072,12096.67
3630,23096,12100.00
3631,23124,12103.33
3632,23148,12106.67
3633,23168,12110.00
3634,23192,12113.33
3635,23216,12116.67
3636,23228,12120.00
3637,23176,12123.33
3638,23060,12126.67
3639,22908,12130.00
3640,22748,12133.33
3641,22624,12136.67
3642,22560,12140.00
3643,22548,12143.33
3644,22568,12146.67
3645,22604,12150.00
3646,22648,12153.33
3647,22700,12156.67
3648,22748,12160.00
3649,22796,12163.33
3650,22832,12166.67
3651,22856,12170.00
3652,22868,12173.33
3653,22872,12176.67
3654,22864,12180.00
3655,22864,12183.33
3656,22868,12186.67
3657,22876,12190.00
3658,22892,12193.33
3659,22916,12196.67
3660,22940,12200.00
3661,22964,12203.33
3662,22992,12206.67
3663,23024,12210.00
3664,23048,12213.33
3665,23076,12216.67
3666,23100,12220.00
3667,23128,12223.33
3668,23156,12226.67
3669,23172,12230.00
3670,23172,12233.33
3671,23104,12236.67
3672,22968,12240.00
3673,22792,12243.33
3674,22624,12246.67
3675,22512,12250.00
3676,22460,12253.33
3677,22456,12256.67
3678,22480,12260.00
3679,22516,12263.33
3680,22548,12266.67
3681,22580,12270.00
3682,22620,12273.33
3683,22660,12276.67
3684,22688,12280.00
3685,22720,12283.33
3686,22736,12286.67
3687,22744,12290.00
3688,22748,12293.33
3689,22748,12296.67
3690,22756,12300.00
3691,22764,12303.33
3692,22776,12306.67
3693,22796,12310.00
3694,22820,12313.33
3695,22848,12316.67
3696,22876,12320.00
3697,22904,12323.33
3698,22936,12326.67
3699,22964,12330.00
3700,22988,12333.33
3701,23008,12336.67
3702,23028,12340.00
3703,23052,12343.33
3704,23068,12346.67
3705,23088,12350.00
3706,23108,12353.33
3707,23112,12356.67
3708,23060,12360.00
3709,22928,12363.33
3710,22752,12366.67
3711,22580,12370.00
3712,22452,12373.33
3713,22392,12376.67
3714,22384,12380.00
3715,22400,12383.33
3716,22436,12386.67
3717,22468,12390.00
3718,22492,12393.33
3719,22520,12396.67
3720,22552,12400.00
3721,22588,12403.33
3722,22620,12406.67
3723,22644,12410.00
3724,22664,12413.33
3725,22676,12416.67
3726,22684,12420.00
3727,22692,12423.33
3728,22704,12426.67
3729,22716,12430.00
3730,22736,12433.33
3731,22760,12436.67
3732,22784,12440.00
3733,22816,12443.33
3734,22844,12446.67
3735,22872,12450.00
3736,22900,12453.33
3737,22928,12456.67
3738,22956,12460.00
3739,22976,12463.33
3740,22996,12466.67
3741,23020,12470.00
3742,23036,12473.33
3743,23056,12476.67
3744,23076,12480.00
3745,23088,12483.33
3746,23104,12486.67
3747,23124,12490.00
3748,23136,12493.33
3749,23152,12496.67
3750,23172,12500.00
3751,23192,12503.33
3752,23212,12506.67
3753,23232,12510.00
3754,23248,12513.33
3755,23268,12516.67
3756,23288,12520.00
3757,23308,12523.33
3758,23312,12526.67
3759,23260,12530.00
3760,23112,12533.33
3761,22904,12536.67
3762,22692,12540.00
3763,22532,12543.33
3764,22440,12546.67
3765,22416,12550.00
3766,22428,12553.33
3767,22464,12556.67
3768,22500,12560.00
3769,22528,12563.33
3770,22552,12566.67
3771,22580,12570.00
3772,22612,12573.33
3773,22636,12576.67
3774,22656,12580.00
3775,22672,12583.33
3776,22680,12586.67
3777,22688,12590.00
3778,22696,12593.33
3779,22708,12596.67
3780,22724,12600.00
3781,22744,12603.33
3782,22768,12606.67
3783,22792,12610.00
3784,22820,12613.33
3785,22848,12616.67
3786,22876,12620.00
3787,22900,12623.33
3788,22932,12626.67
3789,22956,12630.00
3790,22984,12633.33
3791,23004,12636.67
3792,23024,12640.00
3793,23044,12643.33
3794,23064,12646.67
3795,23080,12650.00
3796,23100,12653.33
3797,23116,12656.67
3798,23132,12660.00
3799,23144,12663.33
3800,23160,12666.67
3801,23180,12670.00
3802,23196,12673.33
3803,23212,12676.67
3804,23228,12680.00
3805,23252,12683.33
3806,23268,12686.67
3807,23284,12690.00
3808,23308,12693.33
3809,23328,12696.67
3810,23332,12700.00
3811,23280,12703.33
3812,23144,12706.67
3813,22960,12710.00
3814,22760,12713.33
3815,22604,12716.67
3816,22508,12720.00
3817,22476,12723.33
3818,22488,12726.67
3819,22516,12730.00
3820,22560,12733.33
3821,22596,12736.67
3822,22636,12740.00
3823,22672,12743.33
3824,22700,12746.67
3825,22724,12750.00
3826,22736,12753.33
3827,22740,12756.67
3828,22740,12760.00
3829,22736,12763.33
3830,22744,12766.67
3831,22748,12770.00
3832,22760,12773.33
3833,22780,12776.67
3834,22808,12780.00
3835,22828,12783.33
3836,22856,12786.67
3837,22884,12790.00
3838,22912,12793.33
3839,22940,12796.67
3840,22972,12800.00
3841,22996,12803.33
3842,23020,12806.67
3843,23036,12810.00
3844,23060,12813.33
3845,23080,12816.67
3846,23096,12820.00
3847,23112,12823.33
3848,23124,12826.67
3849,23144,12830.00
3850,23160,12833.33
3851,23176,12836.67
3852,23188,12840.00
3853,23208,12843.33
3854,23220,12846.67
3855,23236,12850.00
3856,23256,12853.33
3857,23228,12856.67
3858,23132,12860.00
3859,22976,12863.33
3860,22792,12866.67
3861,22628,12870.00
3862,22516,12873.33
3863,22468,12876.67
3864,22464,12880.00
3865,22488,12883.33
3866,22524,12886.67
3867,22568,12890.00
3868,22604,12893.33
3869,22648,12896.67
3870,22688,12900.00
3871,22716,12903.33
3872,22732,12906.67
3873,22744,12910.00
3874,22744,12913.33
3875,22744,12916.67
3876,22748,12920.00
3877,22752,12923.33
3878,22764,12926.67
3879,22780,12930.00
3880,22800,12933.33
3881,22828,12936.67
3882,22856,12940.00
3883,22884,12943.33
3884,22916,12946.67
3885,22944,12950.00
3886,22976,12953.33
3887,23000,12956.67
3888,23024,12960.00
3889,23048,12963.33
3890,23068,12966.67
3891,23088,12970.00
3892,23108,12973.33
3893,23116,12976.67
3894,23132,12980.00
3895,23152,12983.33
3896,23164,12986.67
3897,23176,12990.00
3898,23188,12993.33
3899,23196,12996.67
3900,23208,13000.00
3901,23224,13003.33
3902,23228,13006.67
3903,23176,13010.00
3904,23060,13013.33
3905,22880,13016.67
3906,22696,13020.00
3907,22544,13023.33
3908,22448,13026.67
3909,22420,13030.00
3910,22420,13033.33
3911,22448,13036.67
3912,22484,13040.00
3913,22512,13043.33
3914,22536,13046.67
3915,22564,13050.00
3916,22592,13053.33
3917,22616,13056.67
3918,22636,13060.00
3919,22652,13063.33
3920,22656,13066.67
3921,22660,13070.00
3922,22664,13073.33
3923,22672,13076.67
3924,22680,13080.00
3925,22692,13083.33
3926,22716,13086.67
3927,22740,13090.00
3928,22768,13093.33
3929,22800,13096.67
3930,22832,13100.00
3931,22864,13103.33
3932,22896,13106.67
3933,22924,13110.00
3934,22956,13113.33
3935,22984,13116.67
3936,23008,13120.00
3937,23032,13123.33
3938,23056,13126.67
3939,23068,13130.00
3940,23088,13133.33
3941,23104,13136.67
3942,23120,13140.00
3943,23136,13143.33
3944,23156,13146.67
3945,23180,13150.00
3946,23200,13153.33
3947,23224,13156.67
3948,23240,13160.00
3949,23200,13163.33
3950,23092,13166.67
3951,22924,13170.00
3952,22740,13173.33
3953,22592,13176.67
3954,22496,13180.00
3955,22472,13183.33
3956,22484,13186.67
3957,22512,13190.00
3958,22544,13193.33
3959,22576,13196.67
3960,22596,13200.00
3961,22628,13203.33
3962,22656,13206.67
3963,22684,13210.00
3964,22704,13213.33
3965,22720,13216.67
3966,22728,13220.00
3967,22736,13223.33
3968,22736,13226.67
3969,22740,13230.00
3970,22752,13233.33
3971,22764,13236.67
3972,22784,13240.00
3973,22808,13243.33
3974,22836,13246.67
3975,22864,13250.00
3976,22892,13253.33
3977,22924,13256.67
3978,22952,13260.00
3979,22976,13263.33
3980,23000,13266.67
3981,23024,13270.00
3982,23044,13273.33
3983,23068,13276.67
3984,23088,13280.00
3985,23108,13283.33
3986,23124,13286.67
3987,23140,13290.00
3988,23152,13293.33
3989,23168,13296.67
3990,23184,13300.00
3991,23204,13303.33
3992,23220,13306.67
3993,23220,13310.00
3994,23152,13313.33
3995,23016,13316.67
3996,22848,13320.00
3997,22688,13323.33
3998,22572,13326.67
3999,22512,13330.00
4000,22508,13333.33
4001,22524,13336.67
4002,22556,13340.00
4003,22596,13343.33
4004,22636,13346.67
4005,22676,13350.00
4006,22712,13353.33
4007,22744,13356.67
4008,22764,13360.00
4009,22772,13363.33
4010,22768,13366.67
4011,22764,13370.00
4012,22760,13373.33
4013,22768,13376.67
4014,22772,13380.00
4015,22784,13383.33
4016,22800,13386.67
4017,22824,13390.00
4018,22844,13393.33
4019,22872,13396.67
4020,22904,13400.00
4021,22928,13403.33
4022,22952,13406.67
4023,22972,13410.00
4024,22996,13413.33
4025,23016,13416.67
4026,23032,13420.00
4027,23052,13423.33
4028,23068,13426.67
4029,23084,13430.00
4030,23100,13433.33
4031,23116,13436.67
4032,23132,13440.00
4033,23152,13443.33
4034,23136,13446.67
4035,23052,13450.00
4036,22912,13453.33
4037,22740,13456.67
4038,22588,13460.00
4039,22480,13463.33
4040,22436,13466.67
4041,22436,13470.00
4042,22460,13473.33
4043,22496,13476.67
4044,22532,13480.00
4045,22572,13483.33
4046,22612,13486.67
4047,22656,13490.00
4048,22688,13493.33
4049,22704,13496.67
4050,22720,13500.00
4051,22724,13503.33
4052,22728,13506.67
4053,22732,13510.00
4054,22736,13513.33
4055,22740,13516.67
4056,22760,13520.00
4057,22780,13523.33
4058,22808,13526.67
4059,22836,13530.00
4060,22864,13533.33
4061,22892,13536.67
4062,22920,13540.00
4063,22948,13543.33
4064,22972,13546.67
4065,23000,13550.00
4066,23024,13553.33
4067,23048,13556.67
4068,23064,13560.00
4069,23084,13563.33
4070,23100,13566.67
4071,23120,13570.00
4072,23136,13573.33
4073,23120,13576.67
4074,23028,13580.00
4075,22872,13583.33
4076,22688,13586.67
4077,22520,13590.00
4078,22408,13593.33
4079,22360,13596.67
4080,22356,13600.00
4081,22380,13603.33
4082,22412,13606.67
4083,22440,13610.00
4084,22468,13613.33
4085,22496,13616.67
4086,22528,13620.00
4087,22560,13623.33
4088,22588,13626.67
4089,22608,13630.00
4090,22624,13633.33
4091,22636,13636.67
4092,22640,13640.00
4093,22644,13643.33
4094,22652,13646.67
4095,22664,13650.00
4096,22684,13653.33
4097,22708,13656.67
4098,22740,13660.00
4099,22768,13663.33
4100,22800,13666.67
4101,22832,13670.00
4102,22864,13673.33
4103,22892,13676.67
4104,22916,13680.00
4105,22936,13683.33
4106,22956,13686.67
4107,22976,13690.00
4108,22996,13693.33
4109,23012,13696.67
4110,23036,13700.00
4111,23048,13703.33
4112,23024,13706.67
4113,22924,13710.00
4114,22768,13713.33
4115,22592,13716.67
4116,22440,13720.00
4117,22352,13723.33
4118,22328,13726.67
4119,22332,13730.00
4120,22356,13733.33
4121,22384,13736.67
4122,22408,13740.00
4123,22436,13743.33
4124,22460,13746.67
4125,22496,13750.00
4126,22532,13753.33
4127,22564,13756.67
4128,22588,13760.00
4129,22604,13763.33
4130,22620,13766.67
4131,22628,13770.00
4132,22640,13773.33
4133,22644,13776.67
4134,22660,13780.00
4135,22676,13783.33
4136,22700,13786.67
4137,22724,13790.00
4138,22752,13793.33
4139,22780,13796.67
4140,22808,13800.00
4141,22836,13803.33
4142,22860,13806.67
4143,22888,13810.00
4144,22912,13813.33
4145,22936,13816.67
4146,22952,13820.00
4147,22968,13823.33
4148,22988,13826.67
4149,23004,13830.00
4150,23020,13833.33
4151,23036,13836.67
4152,23060,13840.00
4153,23072,13843.33
4154,23044,13846.67
4155,22944,13850.00
4156,22776,13853.33
4157,22596,13856.67
4158,22444,13860.00
4159,22364,13863.33
4160,22336,13866.67
4161,22348,13870.00
4162,22376,13873.33
4163,22420,13876.67
4164,22452,13880.00
4165,22484,13883.33
4166,22520,13886.67
4167,22556,13890.00
4168,22584,13893.33
4169,22604,13896.67
4170,22620,13900.00
4171,22624,13903.33
4172,22632,13906.67
4173,22640,13910.00
4174,22644,13913.33
4175,22660,13916.67
4176,22680,13920.00
4177,22704,13923.33
4178,22732,13926.67
4179,22760,13930.00
4180,22788,13933.33
4181,22820,13936.67
4182,22852,13940.00
4183,22876,13943.33
4184,22908,13946.67
4185,22928,13950.00
4186,22948,13953.33
4187,22968,13956.67
4188,22992,13960.00
4189,23008,13963.33
4190,23028,13966.67
4191,23040,13970.00
4192,23060,13973.33
4193,23076,13976.67
4194,23096,13980.00
4195,23116,13983.33
4196,23092,13986.67
4197,23000,13990.00
4198,22840,13993.33
4199,22652,13996.67
4200,22480,14000.00
4201,22376,14003.33
4202,22332,14006.67
4203,22332,14010.00
4204,22360,14013.33
4205,22400,14016.67
4206,22432,14020.00
4207,22464,14023.33
4208,22496,14026.67
4209,22532,14030.00
4210,22564,14033.33
4211,22592,14036.67
4212,22612,14040.00
4213,22620,14043.33
4214,22632,14046.67
4215,22636,14050.00
4216,22644,14053.33
4217,22656,14056.67
4218,22672,14060.00
4219,22696,14063.33
4220,22720,14066.67
4221,22748,14070.00
4222,22780,14073.33
4223,22816,14076.67
4224,22848,14080.00
4225,22880,14083.33
4226,22908,14086.67
4227,22936,14090.00
4228,22960,14093.33
4229,22984,14096.67
4230,23008,14100.00
4231,23028,14103.33
4232,23052,14106.67
4233,23072,14110.00
4234,23092,14113.33
4235,23112,14116.67
4236,23132,14120.00
4237,23156,14123.33
4238,23176,14126.67
4239,23188,14130.00
4240,23140,14133.33
4241,23016,14136.67
4242,22828,14140.00
4243,22632,14143.33
4244,22476,14146.67
4245,22384,14150.00
4246,22356,14153.33
4247,22368,14156.67
4248,22396,14160.00
4249,22428,14163.33
4250,22456,14166.67
4251,22484,14170.00
4252,22512,14173.33
4253,22540,14176.67
4254,22576,14180.00
4255,22600,14183.33
4256,22624,14186.67
4257,22640,14190.00
4258,22652,14193.33
4259,22660,14196.67
4260,22668,14200.00
4261,22680,14203.33
4262,22692,14206.67
4263,22712,14210.00
4264,22740,14213.33
4265,22764,14216.67
4266,22796,14220.00
4267,22828,14223.33
4268,22860,14226.67
4269,22892,14230.00
4270,22916,14233.33
4271,22948,14236.67
4272,22976,14240.00
4273,22996,14243.33
4274,23020,14246.67
4275,23044,14250.00
4276,23064,14253.33
4277,23084,14256.67
4278,23108,14260.00
4279,23128,14263.33
4280,23148,14266.67
4281,23168,14270.00
4282,23188,14273.33
4283,23208,14276.67
4284,23232,14280.00
4285,23252,14283.33
4286,23276,14286.67
4287,23292,14290.00
4288,23264,14293.33
4289,23148,14296.67
4290,22964,14300.00
4291,22764,14303.33
4292,22584,14306.67
4293,22472,14310.00
4294,22424,14313.33
4295,22428,14316.67
4296,22456,14320.00
4297,22492,14323.33
4298,22528,14326.67
4299,22560,14330.00
4300,22596,14333.33
4301,22632,14336.67
4302,22660,14340.00
4303,22680,14343.33
4304,22704,14346.67
4305,22712,14350.00
4306,22716,14353.33
4307,22716,14356.67
4308,22724,14360.00
4309,22728,14363.33
4310,22744,14366.67
4311,22756,14370.00
4312,22780,14373.33
4313,22804,14376.67
4314,22836,14380.00
4315,22864,14383.33
4316,22896,14386.67
4317,22924,14390.00
4318,22956,14393.33
4319,22980,14396.67
4320,23004,14400.00
4321,23028,14403.33
4322,23048,14406.67
4323,23068,14410.00
4324,23080,14413.33
4325,23100,14416.67
4326,23116,14420.00
4327,23132,14423.33
4328,23156,14426.67
4329,23176,14430.00
4330,23192,14433.33
4331,23164,14436.67
4332,23068,14440.00
4333,22908,14443.33
4334,22728,14446.67
4335,22568,14450.00
4336,22464,14453.33
4337,22428,14456.67
4338,22428,14460.00
4339,22456,14463.33
4340,22500,14466.67
4341,22544,14470.00
4342,22588,14473.33
4343,22628,14476.67
4344,22672,14480.00
4345,22708,14483.33
4346,22728,14486.67
4347,22740,14490.00
4348,22748,14493.33
4349,22748,14496.67
4350,22748,14500.00
4351,22748,14503.33
4352,22760,14506.67
4353,22772,14510.00
4354,22792,14513.33
4355,22820,14516.67
4356,22848,14520.00
4357,22880,14523.33
4358,22912,14526.67
4359,22944,14530.00
4360,22976,14533.33
4361,23000,14536.67
4362,23032,14540.00
4363,23056,14543.33
4364,23080,14546.67
4365,23100,14550.00
4366,23120,14553.33
4367,23136,14556.67
4368,23152,14560.00
4369,23172,14563.33
4370,23192,14566.67
4371,23192,14570.00
4372,23136,14573.33
4373,23004,14576.67
4374,22820,14580.00
4375,22636,14583.33
4376,22492,14586.67
4377,22408,14590.00
4378,22380,14593.33
4379,22388,14596.67
4380,22416,14600.00
4381,22452,14603.33
4382,22484,14606.67
4383,22512,14610.00
4384,22544,14613.33
4385,22584,14616.67
4386,22616,14620.00
4387,22640,14623.33
4388,22660,14626.67
4389,22672,14630.00
4390,22680,14633.33
4391,22688,14636.67
4392,22692,14640.00
4393,22704,14643.33
4394,22724,14646.67
4395,22740,14650.00
4396,22764,14653.33
4397,22792,14656.67
4398,22824,14660.00
4399,22856,14663.33
4400,22888,14666.67
4401,22916,14670.00
4402,22948,14673.33
4403,22976,14676.67
4404,23004,14680.00
4405,23028,14683.33
4406,23040,14686.67
4407,23064,14690.00
4408,23084,14693.33
4409,23100,14696.67
4410,23120,14700.00
4411,23140,14703.33
4412,23136,14706.67
4413,23056,14710.00
4414,22912,14713.33
4415,22724,14716.67
4416,22552,14720.00
4417,22424,14723.33
4418,22364,14726.67
4419,22352,14730.00
4420,22376,14733.33
4421,22404,14736.67
4422,22432,14740.00
4423,22460,14743.33
4424,22492,14746.67
4425,22524,14750.00
4426,22556,14753.33
4427,22584,14756.67
4428,22608,14760.00
4429,22624,14763.33
4430,22636,14766.67
4431,22640,14770.00
4432,22648,14773.33
4433,22656,14776.67
4434,22668,14780.00
4435,22688,14783.33
4436,22708,14786.67
4437,22732,14790.00
4438,22760,14793.33
4439,22788,14796.67
4440,22820,14800.00
4441,22852,14803.33
4442,22876,14806.67
4443,22904,14810.00
4444,22928,14813.33
4445,22952,14816.67
4446,22976,14820.00
4447,22992,14823.33
4448,23012,14826.67
4449,23024,14830.00
4450,23044,14833.33
4451,23064,14836.67
4452,23084,14840.00
4453,23072,14843.33
4454,22984,14846.67
4455,22836,14850.00
4456,22656,14853.33
4457,22500,14856.67
4458,22396,14860.00
4459,22360,14863.33
4460,22364,14866.67
4461,22388,14870.00
4462,22420,14873.33
4463,22456,14876.67
4464,22492,14880.00
4465,22528,14883.33
4466,22564,14886.67
4467,22596,14890.00
4468,22620,14893.33
4469,22632,14896.67
4470,22636,14900.00
4471,22636,14903.33
4472,22644,14906.67
4473,22648,14910.00
4474,22656,14913.33
4475,22668,14916.67
4476,22692,14920.00
4477,22716,14923.33
4478,22740,14926.67
4479,22768,14930.00
4480,22796,14933.33
4481,22828,14936.67
4482,22848,14940.00
4483,22876,14943.33
4484,22900,14946.67
4485,22924,14950.00
4486,22944,14953.33
4487,22960,14956.67
4488,22976,14960.00
4489,22996,14963.33
4490,23008,14966.67
4491,23028,14970.00
4492,23036,14973.33
4493,22988,14976.67
4494,22868,14980.00
4495,22700,14983.33
4496,22532,14986.67
4497,22404,14990.00
4498,22336,14993.33
4499,22320,14996.67
4500,22332,15000.00
4501,22364,15003.33
4502,22400,15006.67
4503,22428,15010.00
4504,22460,15013.33
4505,22500,15016.67
4506,22532,15020.00
4507,22564,15023.33
4508,22588,15026.67
4509,22600,15030.00
4510,22608,15033.33
4511,22616,15036.67
4512,22620,15040.00
4513,22628,15043.33
4514,22644,15046.67
4515,22664,15050.00
4516,22684,15053.33
4517,22716,15056.67
4518,22744,15060.00
4519,22776,15063.33
4520,22808,15066.67
4521,22836,15070.00
4522,22868,15073.33
4523,22892,15076.67
4524,22924,15080.00
4525,22948,15083.33
4526,22968,15086.67
4527,22988,15090.00
4528,23008,15093.33
4529,23020,15096.67
4530,23036,15100.00
4531,23056,15103.33
4532,23076,15106.67
4533,23084,15110.00
4534,23048,15113.33
4535,22928,15116.67
4536,22760,15120.00
4537,22576,15123.33
4538,22420,15126.67
4539,22336,15130.00
4540,22308,15133.33
4541,22312,15136.67
4542,22336,15140.00
4543,22368,15143.33
4544,22400,15146.67
4545,22424,15150.00
4546,22452,15153.33
4547,22484,15156.67
4548,22512,15160.00
4549,22540,15163.33
4550,22564,15166.67
4551,22580,15170.00
4552,22588,15173.33
4553,22596,15176.67
4554,22604,15180.00
4555,22612,15183.33
4556,22632,15186.67
4557,22652,15190.00
4558,22676,15193.33
4559,22708,15196.67
4560,22736,15200.00
4561,22772,15203.33
4562,22804,15206.67
4563,22832,15210.00
4564,22860,15213.33
4565,22884,15216.67
4566,22908,15220.00
4567,22932,15223.33
4568,22956,15226.67
4569,22976,15230.00
4570,22992,15233.33
4571,23012,15236.67
4572,23032,15240.00
4573,23048,15243.33
4574,23064,15246.67
4575,23084,15250.00
4576,23100,15253.33
4577,23124,15256.67
4578,23136,15260.00
4579,23112,15263.33
4580,23004,15266.67
4581,22832,15270.00
4582,22644,15273.33
4583,22484,15276.67
4584,22388,15280.00
4585,22352,15283.33
4586,22356,15286.67
4587,22388,15290.00
4588,22420,15293.33
4589,22452,15296.67
4590,22480,15300.00
4591,22508,15303.33
4592,22540,15306.67
4593,22572,15310.00
4594,22588,15313.33
4595,22600,15316.67
4596,22612,15320.00
4597,22612,15323.33
4598,22616,15326.67
4599,22620,15330.00
4600,22632,15333.33
4601,22648,15336.67
4602,22668,15340.00
4603,22692,15343.33
4604,22716,15346.67
4605,22748,15350.00
4606,22776,15353.33
4607,22804,15356.67
4608,22840,15360.00
4609,22868,15363.33
4610,22900,15366.67
4611,22920,15370.00
4612,22940,15373.33
4613,22956,15376.67
4614,22976,15380.00
4615,22992,15383.33
4616,23008,15386.67
4617,23020,15390.00
4618,23040,15393.33
4619,23056,15396.67
4620,23080,15400.00
4621,23096,15403.33
4622,23084,15406.67
4623,23000,15410.00
4624,22856,15413.33
4625,22688,15416.67
4626,22536,15420.00
4627,22436,15423.33
4628,22392,15426.67
4629,22396,15430.00
4630,22420,15433.33
4631,22464,15436.67
4632,22500,15440.00
4633,22536,15443.33
4634,22572,15446.67
4635,22612,15450.00
4636,22640,15453.33
4637,22664,15456.67
4638,22676,15460.00
4639,22680,15463.33
4640,22680,15466.67
4641,22684,15470.00
4642,22688,15473.33
4643,22700,15476.67
4644,22720,15480.00
4645,22744,15483.33
4646,22768,15486.67
4647,22796,15490.00
4648,22824,15493.33
4649,22852,15496.67
4650,22876,15500.00
4651,22904,15503.33
4652,22924,15506.67
4653,22952,15510.00
4654,22968,15513.33
4655,22992,15516.67
4656,23008,15520.00
4657,23024,15523.33
4658,23040,15526.67
4659,23056,15530.00
4660,23072,15533.33
4661,23088,15536.67
4662,23104,15540.00
4663,23120,15543.33
4664,23096,15546.67
4665,23012,15550.00
4666,22852,15553.33
4667,22668,15556.67
4668,22504,15560.00
4669,22392,15563.33
4670,22348,15566.67
4671,22348,15570.00
4672,22372,15573.33
4673,22408,15576.67
4674,22436,15580.00
4675,22464,15583.33
4676,22488,15586.67
4677,22520,15590.00
4678,22552,15593.33
4679,22580,15596.67
4680,22604,15600.00
4681,22616,15603.33
4682,22628,15606.67
4683,22632,15610.00
4684,22644,15613.33
4685,22660,15616.67
4686,22680,15620.00
4687,22708,15623.33
4688,22736,15626.67
4689,22772,15630.00
4690,22804,15633.33
4691,22836,15636.67
4692,22872,15640.00
4693,22904,15643.33
4694,22932,15646.67
4695,22964,15650.00
4696,22988,15653.33
4697,23016,15656.67
4698,23048,15660.00
4699,23072,15663.33
4700,23092,15666.67
4701,23112,15670.00
4702,23136,15673.33
4703,23156,15676.67
4704,23180,15680.00
4705,23188,15683.33
4706,23148,15686.67
4707,23040,15690.00
4708,22872,15693.33
4709,22688,15696.67
4710,22532,15700.00
4711,22436,15703.33
4712,22404,15706.67
4713,22412,15710.00
4714,22440,15713.33
4715,22476,15716.67
4716,22512,15720.00
4717,22544,15723.33
4718,22580,15726.67
4719,22616,15730.00
4720,22644,15733.33
4721,22668,15736.67
4722,22684,15740.00
4723,22696,15743.33
4724,22704,15746.67
4725,22708,15750.00
4726,22712,15753.33
4727,22724,15756.67
4728,22744,15760.00
4729,22764,15763.33
4730,22792,15766.67
4731,22820,15770.00
4732,22856,15773.33
4733,22888,15776.67
4734,22920,15780.00
4735,22956,15783.33
4736,22984,15786.67
4737,23012,15790.00
4738,23036,15793.33
4739,23060,15796.67
4740,23080,15800.00
4741,23100,15803.33
4742,23124,15806.67
4743,23144,15810.00
4744,23168,15813.33
4745,23172,15816.67
4746,23112,15820.00
4747,22980,15823.33
4748,22808,15826.67
4749,22640,15830.00
4750,22512,15833.33
4751,22448,15836.67
4752,22436,15840.00
4753,22452,15843.33
4754,22488,15846.67
4755,22532,15850.00
4756,22580,15853.33
4757,22620,15856.67
4758,22664,15860.00
4759,22704,15863.33
4760,22732,15866.67
4761,22752,15870.00
4762,22760,15873.33
4763,22756,15876.67
4764,22760,15880.00
4765,22760,15883.33
4766,22768,15886.67
4767,22780,15890.00
4768,22800,15893.33
4769,22824,15896.67
4770,22852,15900.00
4771,22884,15903.33
4772,22916,15906.67
4773,22952,15910.00
4774,22980,15913.33
4775,23012,15916.67
4776,23036,15920.00
4777,23060,15923.33
4778,23084,15926.67
4779,23104,15930.00
4780,23120,15933.33
4781,23144,15936.67
4782,23160,15940.00
4783,23132,15943.33
4784,23036,15946.67
4785,22876,15950.00
4786,22692,15953.33
4787,22540,15956.67
4788,22436,15960.00
4789,22404,15963.33
4790,22404,15966.67
4791,22432,15970.00
4792,22468,15973.33
4793,22500,15976.67
4794,22536,15980.00
4795,22576,15983.33
4796,22612,15986.67
4797,22644,15990.00
4798,22672,15993.33
4799,22692,15996.67
4800,22704,16000.00
4801,22716,16003.33
4802,22720,16006.67
4803,22728,16010.00
4804,22740,16013.33
4805,22756,16016.67
4806,22780,16020.00
4807,22808,16023.33
4808,22836,16026.67
4809,22868,16030.00
4810,22900,16033.33
4811,22932,16036.67
4812,22964,16040.00
4813,22996,16043.33
4814,23024,16046.67
4815,23048,16050.00
4816,23072,16053.33
4817,23092,16056.67
4818,23116,16060.00
4819,23132,16063.33
4820,23152,16066.67
4821,23176,16070.00
4822,23188,16073.33
4823,23156,16076.67
4824,23052,16080.00
4825,22880,16083.33
4826,22688,16086.67
4827,22524,16090.00
4828,22420,16093.33
4829,22380,16096.67
4830,22380,16100.00
4831,22408,16103.33
4832,22440,16106.67
4833,22476,16110.00
4834,22500,16113.33
4835,22536,16116.67
4836,22568,16120.00
4837,22604,16123.33
4838,22632,16126.67
4839,22652,16130.00
4840,22668,16133.33
4841,22676,16136.67
4842,22688,16140.00
4843,22696,16143.33
4844,22708,16146.67
4845,22728,16150.00
4846,22744,16153.33
4847,22772,16156.67
4848,22800,16160.00
4849,22836,16163.33
4850,22868,16166.67
4851,22900,16170.00
4852,22932,16173.33
4853,22968,16176.67
4854,22992,16180.00
4855,23020,16183.33
4856,23044,16186.67
4857,23068,16190.00
4858,23092,16193.33
4859,23116,16196.67
4860,23136,16200.00
4861,23160,16203.33
4862,23176,16206.67
4863,23200,16210.00
4864,23216,16213.33
4865,23240,16216.67
4866,23256,16220.00
4867,23232,16223.33
4868,23136,16226.67
4869,22968,16230.00
4870,22772,16233.33
4871,22596,16236.67
4872,22476,16240.00
4873,22428,16243.33
4874,22424,16246.67
4875,22448,16250.00
4876,22484,16253.33
4877,22520,16256.67
4878,22548,16260.00
4879,22580,16263.33
4880,22616,16266.67
4881,22648,16270.00
4882,22668,16273.33
4883,22688,16276.67
4884,22704,16280.00
4885,22712,16283.33
4886,22712,16286.67
4887,22716,16290.00
4888,22732,16293.33
4889,22748,16296.67
4890,22768,16300.00
4891,22800,16303.33
4892,22836,16306.67
4893,22868,16310.00
4894,22904,16313.33
4895,22940,16316.67
4896,22972,16320.00
4897,23004,16323.33
4898,23028,16326.67
4899,23056,16330.00
4900,23076,16333.33
4901,23096,16336.67
4902,23120,16340.00
4903,23140,16343.33
4904,23160,16346.67
4905,23176,16350.00
4906,23200,16353.33
4907,23224,16356.67
4908,23244,16360.00
4909,23268,16363.33
4910,23288,16366.67
4911,23296,16370.00
4912,23248,16373.33
4913,23124,16376.67
4914,22948,16380.00
4915,22764,16383.33
4916,22608,16386.67
4917,22516,16390.00
4918,22488,16393.33
4919,22496,16396.67
4920,22524,16400.00
4921,22568,16403.33
4922,22612,16406.67
4923,22652,16410.00
4924,22696,16413.33
4925,22736,16416.67
4926,22768,16420.00
4927,22784,16423.33
4928,22796,16426.67
4929,22800,16430.00
4930,22804,16433.33
4931,22804,16436.67
4932,22812,16440.00
4933,22820,16443.33
4934,22844,16446.67
4935,22868,16450.00
4936,22896,16453.33
4937,22928,16456.67
4938,22960,16460.00
4939,22996,16463.33
4940,23028,16466.67
4941,23056,16470.00
4942,23088,16473.33
4943,23112,16476.67
4944,23136,16480.00
4945,23156,16483.33
4946,23180,16486.67
4947,23200,16490.00
4948,23216,16493.33
4949,23236,16496.67
4950,23256,16500.00
4951,23276,16503.33
4952,23264,16506.67
4953,23180,16510.00
4954,23032,16513.33
4955,22856,16516.67
4956,22684,16520.00
4957,22564,16523.33
4958,22500,16526.67
4959,22488,16530.00
4960,22500,16533.33
4961,22536,16536.67
4962,22572,16540.00
4963,22616,16543.33
4964,22656,16546.67
4965,22704,16550.00
4966,22740,16553.33
4967,22764,16556.67
4968,22780,16560.00
4969,22788,16563.33
4970,22784,16566.67
4971,22784,16570.00
4972,22780,16573.33
4973,22784,16576.67
4974,22800,16580.00
4975,22820,16583.33
4976,22848,16586.67
4977,22876,16590.00
4978,22908,16593.33
4979,22940,16596.67
4980,22972,16600.00
4981,23000,16603.33
4982,23028,16606.67
4983,23052,16610.00
4984,23076,16613.33
4985,23096,16616.67
4986,23124,16620.00
4987,23136,16623.33
4988,23124,16626.67
4989,23036,16630.00
4990,22900,16633.33
4991,22732,16636.67
4992,22584,16640.00
4993,22480,16643.33
4994,22440,16646.67
4995,22432,16650.00
4996,22456,16653.33
4997,22488,16656.67
4998,22524,16660.00
4999,22560,16663.33
5000,22600,16666.67
5001,22640,16670.00
5002,22672,16673.33
5003,22696,16676.67
5004,22708,16680.00
5005,22712,16683.33
5006,22712,16686.67
5007,22712,16690.00
5008,22712,16693.33
5009,22720,16696.67
5010,22736,16700.00
5011,22760,16703.33
5012,22784,16706.67
5013,22812,16710.00
5014,22844,16713.33
5015,22876,16716.67
5016,22904,16720.00
5017,22936,16723.33
5018,22956,16726.67
5019,22980,16730.00
5020,23004,16733.33
5021,23024,16736.67
5022,23036,16740.00
5023,23004,16743.33
5024,22900,16746.67
5025,22740,16750.00
5026,22560,16753.33
5027,22420,16756.67
5028,22344,16760.00
5029,22316,16763.33
5030,22320,16766.67
5031,22344,16770.00
5032,22372,16773.33
5033,22396,16776.67
5034,22424,16780.00
5035,22456,16783.33
5036,22492,16786.67
5037,22524,16790.00
5038,22552,16793.33
5039,22572,16796.67
5040,22588,16800.00
5041,22596,16803.33
5042,22604,16806.67
5043,22612,16810.00
5044,22632,16813.33
5045,22648,16816.67
5046,22672,16820.00
5047,22700,16823.33
5048,22728,16826.67
5049,22760,16830.00
5050,22796,16833.33
5051,22820,16836.67
5052,22848,16840.00
5053,22876,16843.33
5054,22900,16846.67
5055,22920,16850.00
5056,22940,16853.33
5057,22964,16856.67
5058,22988,16860.00
5059,23004,16863.33
5060,23020,16866.67
5061,22980,16870.00
5062,22864,16873.33
5063,22688,16876.67
5064,22504,16880.00
5065,22372,16883.33
5066,22296,16886.67
5067,22272,16890.00
5068,22280,16893.33
5069,22304,16896.67
5070,22332,16900.00
5071,22356,16903.33
5072,22380,16906.67
5073,22416,16910.00
5074,22448,16913.33
5075,22484,16916.67
5076,22512,16920.00
5077,22536,16923.33
5078,22552,16926.67
5079,22564,16930.00
5080,22576,16933.33
5081,22588,16936.67
5082,22600,16940.00
5083,22620,16943.33
5084,22652,16946.67
5085,22680,16950.00
5086,22704,16953.33
5087,22740,16956.67
5088,22768,16960.00
5089,22796,16963.33
5090,22824,16966.67
5091,22852,16970.00
5092,22880,16973.33
5093,22900,16976.67
5094,22924,16980.00
5095,22944,16983.33
5096,22968,16986.67
5097,22988,16990.00
5098,23004,16993.33
5099,23024,16996.67
5100,23048,17000.00
5101,23064,17003.33
5102,23084,17006.67
5103,23100,17010.00
5104,23116,17013.33
5105,23136,17016.67
5106,23148,17020.00
5107,23120,17023.33
5108,23012,17026.67
5109,22828,17030.00
5110,22628,17033.33
5111,22468,17036.67
5112,22364,17040.00
5113,22324,17043.33
5114,22324,17046.67
5115,22348,17050.00
5116,22376,17053.33
5117,22400,17056.67
5118,22424,17060.00
5119,22456,17063.33
5120,22484,17066.67
5121,22516,17070.00
5122,22544,17073.33
5123,22564,17076.67
5124,22584,17080.00
5125,22592,17083.33
5126,22600,17086.67
5127,22612,17090.00
5128,22620,17093.33
5129,22640,17096.67
5130,22664,17100.00
5131,22684,17103.33
5132,22716,17106.67
5133,22740,17110.00
5134,22768,17113.33
5135,22796,17116.67
5136,22828,17120.00
5137,22856,17123.33
5138,22884,17126.67
5139,22908,17130.00
5140,22936,17133.33
5141,22956,17136.67
5142,22976,17140.00
5143,23000,17143.33
5144,23016,17146.67
5145,23032,17150.00
5146,23052,17153.33
5147,23068,17156.67
5148,23088,17160.00
5149,23108,17163.33
5150,23124,17166.67
5151,23140,17170.00
5152,23164,17173.33
5153,23184,17176.67
5154,23200,17180.00
5155,23200,17183.33
5156,23132,17186.67
5157,22988,17190.00
5158,22800,17193.33
5159,22616,17196.67
5160,22472,17200.00
5161,22396,17203.33
5162,22376,17206.67
5163,22392,17210.00
5164,22416,17213.33
5165,22452,17216.67
5166,22488,17220.00
5167,22524,17223.33
5168,22560,17226.67
5169,22596,17230.00
5170,22620,17233.33
5171,22636,17236.67
5172,22640,17240.00
5173,22640,17243.33
5174,22640,17246.67
5175,22644,17250.00
5176,22648,17253.33
5177,22664,17256.67
5178,22684,17260.00
5179,22708,17263.33
5180,22736,17266.67
5181,22764,17270.00
5182,22796,17273.33
5183,22824,17276.67
5184,22852,17280.00
5185,22880,17283.33
5186,22908,17286.67
5187,22932,17290.00
5188,22952,17293.33
5189,22972,17296.67
5190,22992,17300.00
5191,23008,17303.33
5192,23032,17306.67
5193,23048,17310.00
5194,23068,17313.33
5195,23084,17316.67
5196,23104,17320.00
5197,23124,17323.33
5198,23144,17326.67
5199,23156,17330.00
5200,23128,17333.33
5201,23032,17336.67
5202,22872,17340.00
5203,22692,17343.33
5204,22536,17346.67
5205,22436,17350.00
5206,22400,17353.33
5207,22396,17356.67
5208,22424,17360.00
5209,22460,17363.33
5210,22508,17366.67
5211,22552,17370.00
5212,22596,17373.33
5213,22636,17376.67
5214,22664,17380.00
5215,22684,17383.33
5216,22688,17386.67
5217,22688,17390.00
5218,22688,17393.33
5219,22684,17396.67
5220,22692,17400.00
5221,22700,17403.33
5222,22716,17406.67
5223,22744,17410.00
5224,22772,17413.33
5225,22800,17416.67
5226,22832,17420.00
5227,22864,17423.33
5228,22896,17426.67
5229,22920,17430.00
5230,22948,17433.33
5231,22972,17436.67
5232,23000,17440.00
5233,23024,17443.33
5234,23044,17446.67
5235,23068,17450.00
5236,23088,17453.33
5237,23108,17456.67
5238,23128,17460.00
5239,23144,17463.33
5240,23168,17466.67
5241,23184,17470.00
5242,23204,17473.33
5243,23176,17476.67
5244,23072,17480.00
5245,22912,17483.33
5246,22720,17486.67
5247,22552,17490.00
5248,22440,17493.33
5249,22400,17496.67
5250,22392,17500.00
5251,22416,17503.33
5252,22452,17506.67
5253,22492,17510.00
5254,22532,17513.33
5255,22568,17516.67
5256,22608,17520.00
5257,22640,17523.33
5258,22660,17526.67
5259,22676,17530.00
5260,22684,17533.33
5261,22692,17536.67
5262,22696,17540.00
5263,22704,17543.33
5264,22708,17546.67
5265,22724,17550.00
5266,22744,17553.33
5267,22772,17556.67
5268,22804,17560.00
5269,22832,17563.33
5270,22860,17566.67
5271,22892,17570.00
5272,22928,17573.33
5273,22952,17576.67
5274,22980,17580.00
5275,23000,17583.33
5276,23024,17586.67
5277,23044,17590.00
5278,23064,17593.33
5279,23084,17596.67
5280,23100,17600.00
5281,23120,17603.33
5282,23140,17606.67
5283,23160,17610.00
5284,23176,17613.33
5285,23172,17616.67
5286,23088,17620.00
5287,22940,17623.33
5288,22752,17626.67
5289,22576,17630.00
5290,22448,17633.33
5291,22388,17636.67
5292,22376,17640.00
5293,22396,17643.33
5294,22428,17646.67
5295,22464,17650.00
5296,22500,17653.33
5297,22536,17656.67
5298,22568,17660.00
5299,22604,17663.33
5300,22628,17666.67
5301,22648,17670.00
5302,22660,17673.33
5303,22668,17676.67
5304,22672,17680.00
5305,22676,17683.33
5306,22684,17686.67
5307,22696,17690.00
5308,22716,17693.33
5309,22744,17696.67
5310,22772,17700.00
5311,22800,17703.33
5312,22832,17706.67
5313,22864,17710.00
5314,22896,17713.33
5315,22924,17716.67
5316,22956,17720.00
5317,22976,17723.33
5318,23000,17726.67
5319,23020,17730.00
5320,23044,17733.33
5321,23060,17736.67
5322,23076,17740.00
5323,23096,17743.33
5324,23112,17746.67
5325,23132,17750.00
5326,23144,17753.33
5327,23120,17756.67
5328,23024,17760.00
5329,22868,17763.33
5330,22684,17766.67
5331,22524,17770.00
5332,22420,17773.33
5333,22380,17776.67
5334,22376,17780.00
5335,22396,17783.33
5336,22432,17786.67
5337,22472,17790.00
5338,22512,17793.33
5339,22556,17796.67
5340,22588,17800.00
5341,22620,17803.33
5342,22632,17806.67
5343,22644,17810.00
5344,22644,17813.33
5345,22640,17816.67
5346,22636,17820.00
5347,22648,17823.33
5348,22652,17826.67
5349,22668,17830.00
5350,22688,17833.33
5351,22716,17836.67
5352,22744,17840.00
5353,22776,17843.33
5354,22808,17846.67
5355,22836,17850.00
5356,22860,17853.33
5357,22884,17856.67
5358,22912,17860.00
5359,22936,17863.33
5360,22956,17866.67
5361,22972,17870.00
5362,22988,17873.33
5363,23012,17876.67
5364,23028,17880.00
5365,23052,17883.33
5366,23056,17886.67
5367,22996,17890.00
5368,22864,17893.33
5369,22696,17896.67
5370,22528,17900.00
5371,22412,17903.33
5372,22356,17906.67
5373,22340,17910.00
5374,22360,17913.33
5375,22392,17916.67
5376,22428,17920.00
5377,22468,17923.33
5378,22512,17926.67
5379,22556,17930.00
5380,22588,17933.33
5381,22608,17936.67
5382,22624,17940.00
5383,22628,17943.33
5384,22628,17946.67
5385,22628,17950.00
5386,22632,17953.33
5387,22636,17956.67
5388,22652,17960.00
5389,22676,17963.33
5390,22700,17966.67
5391,22728,17970.00
5392,22752,17973.33
5393,22780,17976.67
5394,22812,17980.00
5395,22836,17983.33
5396,22864,17986.67
5397,22884,17990.00
5398,22908,17993.33
5399,22932,17996.67
5400,22952,18000.00
5401,22968,18003.33
5402,22988,18006.67
5403,23004,18010.00
5404,23016,18013.33
5405,23036,18016.67
5406,23048,18020.00
5407,23028,18023.33
5408,22924,18026.67
5409,22760,18030.00
5410,22568,18033.33
5411,22416,18036.67
5412,22312,18040.00
5413,22272,18043.33
5414,22276,18046.67
5415,22300,18050.00
5416,22332,18053.33
5417,22364,18056.67
5418,22388,18060.00
5419,22420,18063.33
5420,22452,18066.67
5421,22484,18070.00
5422,22508,18073.33
5423,22524,18076.67
5424,22536,18080.00
5425,22544,18083.33
5426,22552,18086.67
5427,22560,18090.00
5428,22572,18093.33
5429,22588,18096.67
5430,22612,18100.00
5431,22636,18103.33
5432,22664,18106.67
5433,22696,18110.00
5434,22724,18113.33
5435,22752,18116.67
5436,22780,18120.00
5437,22808,18123.33
5438,22832,18126.67
5439,22860,18130.00
5440,22884,18133.33
5441,22904,18136.67
5442,22928,18140.00
5443,22948,18143.33
5444,22964,18146.67
5445,22984,18150.00
5446,23000,18153.33
5447,23016,18156.67
5448,23032,18160.00
5449,23052,18163.33
5450,23072,18166.67
5451,23088,18170.00
5452,23088,18173.33
5453,23036,18176.67
5454,22892,18180.00
5455,22700,18183.33
5456,22504,18186.67
5457,22356,18190.00
5458,22284,18193.33
5459,22260,18196.67
5460,22272,18200.00
5461,22304,18203.33
5462,22336,18206.67
5463,22368,18210.00
5464,22392,18213.33
5465,22424,18216.67
5466,22456,18220.00
5467,22484,18223.33
5468,22504,18226.67
5469,22520,18230.00
5470,22532,18233.33
5471,22544,18236.67
5472,22548,18240.00
5473,22560,18243.33
5474,22572,18246.67
5475,22596,18250.00
5476,22616,18253.33
5477,22644,18256.67
5478,22672,18260.00
5479,22704,18263.33
5480,22736,18266.67
5481,22768,18270.00
5482,22796,18273.33
5483,22824,18276.67
5484,22852,18280.00
5485,22876,18283.33
5486,22896,18286.67
5487,22916,18290.00
5488,22940,18293.33
5489,22956,18296.67
5490,22972,18300.00
5491,22996,18303.33
5492,23016,18306.67
5493,23036,18310.00
5494,23048,18313.33
5495,23072,18316.67
5496,23088,18320.00
5497,23108,18323.33
5498,23124,18326.67
5499,23144,18330.00
5500,23168,18333.33
5501,23152,18336.67
5502,23052,18340.00
5503,22884,18343.33
5504,22696,18346.67
5505,22520,18350.00
5506,22404,18353.33
5507,22352,18356.67
5508,22352,18360.00
5509,22376,18363.33
5510,22412,18366.67
5511,22452,18370.00
5512,22484,18373.33
5513,22520,18376.67
5514,22552,18380.00
5515,22580,18383.33
5516,22596,18386.67
5517,22600,18390.00
5518,22604,18393.33
5519,22604,18396.67
5520,22604,18400.00
5521,22608,18403.33
5522,22620,18406.67
5523,22636,18410.00
5524,22656,18413.33
5525,22684,18416.67
5526,22708,18420.00
5527,22744,18423.33
5528,22776,18426.67
5529,22804,18430.00
5530,22832,18433.33
5531,22860,18436.67
5532,22880,18440.00
5533,22904,18443.33
5534,22924,18446.67
5535,22948,18450.00
5536,22964,18453.33
5537,22984,18456.67
5538,22996,18460.00
5539,23020,18463.33
5540,23036,18466.67
5541,23052,18470.00
5542,23076,18473.33
5543,23092,18476.67
5544,23116,18480.00
5545,23132,18483.33
5546,23144,18486.67
5547,23084,18490.00
5548,22956,18493.33
5549,22772,18496.67
5550,22588,18500.00
5551,22448,18503.33
5552,22372,18506.67
5553,22352,18510.00
5554,22364,18513.33
5555,22392,18516.67
5556,22432,18520.00
5557,22464,18523.33
5558,22500,18526.67
5559,22532,18530.00
5560,22568,18533.33
5561,22596,18536.67
5562,22616,18540.00
5563,22620,18543.33
5564,22632,18546.67
5565,22636,18550.00
5566,22640,18553.33
5567,22648,18556.67
5568,22656,18560.00
5569,22680,18563.33
5570,22704,18566.67
5571,22728,18570.00
5572,22752,18573.33
5573,22780,18576.67
5574,22812,18580.00
5575,22844,18583.33
5576,22868,18586.67
5577,22896,18590.00
5578,22920,18593.33
5579,22944,18596.67
5580,22972,18600.00
5581,22988,18603.33
5582,23012,18606.67
5583,23028,18610.00
5584,23048,18613.33
5585,23068,18616.67
5586,23084,18620.00
5587,23100,18623.33
5588,23116,18626.67
5589,23136,18630.00
5590,23152,18633.33
5591,23172,18636.67
5592,23164,18640.00
5593,23076,18643.33
5594,22920,18646.67
5595,22724,18650.00
5596,22540,18653.33
5597,22408,18656.67
5598,22348,18660.00
5599,22336,18663.33
5600,22352,18666.67
5601,22388,18670.00
5602,22424,18673.33
5603,22456,18676.67
5604,22484,18680.00
5605,22520,18683.33
5606,22552,18686.67
5607,22580,18690.00
5608,22596,18693.33
5609,22612,18696.67
5610,22620,18700.00
5611,22628,18703.33
5612,22632,18706.67
5613,22644,18710.00
5614,22656,18713.33
5615,22672,18716.67
5616,22700,18720.00
5617,22724,18723.33
5618,22752,18726.67
5619,22784,18730.00
5620,22816,18733.33
5621,22844,18736.67
5622,22876,18740.00
5623,22904,18743.33
5624,22928,18746.67
5625,22952,18750.00
5626,22972,18753.33
5627,22996,18756.67
5628,23016,18760.00
5629,23036,18763.33
5630,23052,18766.67
5631,23068,18770.00
5632,23084,18773.33
5633,23096,18776.67
5634,23116,18780.00
5635,23136,18783.33
5636,23152,18786.67
5637,23172,18790.00
5638,23156,18793.33
5639,23064,18796.67
5640,22904,18800.00
5641,22716,18803.33
5642,22540,18806.67
5643,22420,18810.00
5644,22364,18813.33
5645,22360,18816.67
5646,22380,18820.00
5647,22416,18823.33
5648,22452,18826.67
5649,22488,18830.00
5650,22520,18833.33
5651,22556,18836.67
5652,22584,18840.00
5653,22608,18843.33
5654,22620,18846.67
5655,22628,18850.00
5656,22628,18853.33
5657,22632,18856.67
5658,22636,18860.00
5659,22644,18863.33
5660,22660,18866.67
5661,22680,18870.00
5662,22704,18873.33
5663,22736,18876.67
5664,22764,18880.00
5665,22796,18883.33
5666,22828,18886.67
5667,22860,18890.00
5668,22884,18893.33
5669,22912,18896.67
5670,22936,18900.00
5671,22952,18903.33
5672,22972,18906.67
5673,22988,18910.00
5674,23004,18913.33
5675,23020,18916.67
5676,23036,18920.00
5677,23048,18923.33
5678,23068,18926.67
5679,23088,18930.00
5680,23108,18933.33
5681,23104,18936.67
5682,23044,18940.00
5683,22908,18943.33
5684,22736,18946.67
5685,22568,18950.00
5686,22448,18953.33
5687,22388,18956.67
5688,22380,18960.00
5689,22396,18963.33
5690,22432,18966.67
5691,22468,18970.00
5692,22508,18973.33
5693,22548,18976.67
5694,22588,18980.00
5695,22620,18983.33
5696,22640,18986.67
5697,22648,18990.00
5698,22648,18993.33
5699,22648,18996.67
5700,22648,19000.00
5701,22652,19003.33
5702,22660,19006.67
5703,22676,19010.00
5704,22696,19013.33
5705,22720,19016.67
5706,22748,19020.00
5707,22776,19023.33
5708,22804,19026.67
5709,22840,19030.00
5710,22864,19033.33
5711,22892,19036.67
5712,22916,19040.00
5713,22944,19043.33
5714,22964,19046.67
5715,22984,19050.00
5716,23004,19053.33
5717,23020,19056.67
5718,23036,19060.00
5719,23056,19063.33
5720,23076,19066.67
5721,23092,19070.00
5722,23112,19073.33
5723,23116,19076.67
5724,23064,19080.00
5725,22932,19083.33
5726,22752,19086.67
5727,22560,19090.00
5728,22424,19093.33
5729,22344,19096.67
5730,22320,19100.00
5731,22332,19103.33
5732,22360,19106.67
5733,22392,19110.00
5734,22420,19113.33
5735,22448,19116.67
5736,22476,19120.00
5737,22512,19123.33
5738,22536,19126.67
5739,22556,19130.00
5740,22572,19133.33
5741,22580,19136.67
5742,22592,19140.00
5743,22592,19143.33
5744,22600,19146.67
5745,22608,19150.00
5746,22628,19153.33
5747,22648,19156.67
5748,22676,19160.00
5749,22700,19163.33
5750,22732,19166.67
5751,22756,19170.00
5752,22788,19173.33
5753,22816,19176.67
5754,22844,19180.00
5755,22868,19183.33
5756,22888,19186.67
5757,22912,19190.00
5758,22932,19193.33
5759,22948,19196.67
5760,22968,19200.00
5761,22980,19203.33
5762,23000,19206.67
5763,23016,19210.00
5764,23036,19213.33
5765,23056,19216.67
5766,23072,19220.00
5767,23028,19223.33
5768,22912,19226.67
5769,22740,19230.00
5770,22552,19233.33
5771,22404,19236.67
5772,22320,19240.00
5773,22292,19243.33
5774,22300,19246.67
5775,22332,19250.00
5776,22364,19253.33
5777,22396,19256.67
5778,22424,19260.00
5779,22448,19263.33
5780,22480,19266.67
5781,22512,19270.00
5782,22540,19273.33
5783,22556,19276.67
5784,22568,19280.00
5785,22572,19283.33
5786,22580,19286.67
5787,22588,19290.00
5788,22600,19293.33
5789,22616,19296.67
5790,22636,19300.00
5791,22664,19303.33
5792,22692,19306.67
5793,22724,19310.00
5794,22752,19313.33
5795,22780,19316.67
5796,22808,19320.00
5797,22836,19323.33
5798,22864,19326.67
5799,22884,19330.00
5800,22904,19333.33
5801,22920,19336.67
5802,22936,19340.00
5803,22948,19343.33
5804,22964,19346.67
5805,22980,19350.00
5806,22996,19353.33
5807,23012,19356.67
5808,23032,19360.00
5809,23052,19363.33
5810,23072,19366.67
5811,23084,19370.00
5812,23044,19373.33
5813,22920,19376.67
5814,22748,19380.00
5815,22568,19383.33
5816,22424,19386.67
5817,22340,19390.00
5818,22316,19393.33
5819,22324,19396.67
5820,22356,19400.00
5821,22396,19403.33
5822,22432,19406.67
5823,22464,19410.00
5824,22496,19413.33
5825,22528,19416.67
5826,22556,19420.00
5827,22568,19423.33
5828,22576,19426.67
5829,22576,19430.00
5830,22576,19433.33
5831,22580,19436.67
5832,22588,19440.00
5833,22596,19443.33
5834,22620,19446.67
5835,22648,19450.00
5836,22676,19453.33
5837,22704,19456.67
5838,22736,19460.00
5839,22768,19463.33
5840,22792,19466.67
5841,22820,19470.00
5842,22844,19473.33
5843,22868,19476.67
5844,22884,19480.00
5845,22908,19483.33
5846,22924,19486.67
5847,22944,19490.00
5848,22960,19493.33
5849,22976,19496.67
5850,22992,19500.00
5851,23008,19503.33
5852,23032,19506.67
5853,23052,19510.00
5854,23060,19513.33
5855,23028,19516.67
5856,22912,19520.00
5857,22744,19523.33
5858,22564,19526.67
5859,22420,19530.00
5860,22340,19533.33
5861,22308,19536.67
5862,22316,19540.00
5863,22348,19543.33
5864,22384,19546.67
5865,22412,19550.00
5866,22444,19553.33
5867,22480,19556.67
5868,22512,19560.00
5869,22544,19563.33
5870,22556,19566.67
5871,22572,19570.00
5872,22572,19573.33
5873,22576,19576.67
5874,22580,19580.00
5875,22588,19583.33
5876,22600,19586.67
5877,22620,19590.00
5878,22648,19593.33
5879,22680,19596.67
5880,22708,19600.00
5881,22736,19603.33
5882,22768,19606.67
5883,22796,19610.00
5884,22828,19613.33
5885,22852,19616.67
5886,22876,19620.00
5887,22896,19623.33
5888,22920,19626.67
5889,22940,19630.00
5890,22960,19633.33
5891,22980,19636.67
5892,22996,19640.00
5893,23016,19643.33
5894,23032,19646.67
5895,23052,19650.00
5896,23072,19653.33
5897,23096,19656.67
5898,23100,19660.00
5899,23040,19663.33
5900,22900,19666.67
5901,22720,19670.00
5902,22528,19673.33
5903,22388,19676.67
5904,22320,19680.00
5905,22296,19683.33
5906,22312,19686.67
5907,22344,19690.00
5908,22372,19693.33
5909,22400,19696.67
5910,22424,19700.00
5911,22452,19703.33
5912,22480,19706.67
5913,22508,19710.00
5914,22532,19713.33
5915,22548,19716.67
5916,22560,19720.00
5917,22568,19723.33
5918,22576,19726.67
5919,22580,19730.00
5920,22592,19733.33
5921,22612,19736.67
5922,22632,19740.00
5923,22660,19743.33
5924,22688,19746.67
5925,22720,19750.00
5926,22752,19753.33
5927,22780,19756.67
5928,22808,19760.00
5929,22836,19763.33
5930,22860,19766.67
5931,22876,19770.00
5932,22896,19773.33
5933,22920,19776.67
5934,22936,19780.00
5935,22956,19783.33
5936,22972,19786.67
5937,22992,19790.00
5938,23008,19793.33
5939,23032,19796.67
5940,23048,19800.00
5941,23072,19803.33
5942,23080,19806.67
5943,23032,19810.00
5944,22908,19813.33
5945,22728,19816.67
5946,22544,19820.00
5947,22400,19823.33
5948,22320,19826.67
5949,22300,19830.00
5950,22312,19833.33
5951,22344,19836.67
5952,22376,19840.00
5953,22404,19843.33
5954,22432,19846.67
5955,22464,19850.00
5956,22500,19853.33
5957,22524,19856.67
5958,22544,19860.00
5959,22560,19863.33
5960,22564,19866.67
5961,22568,19870.00
5962,22576,19873.33
5963,22584,19876.67
5964,22596,19880.00
5965,22612,19883.33
5966,22636,19886.67
5967,22660,19890.00
5968,22688,19893.33
5969,22716,19896.67
5970,22748,19900.00
5971,22780,19903.33
5972,22808,19906.67
5973,22836,19910.00
5974,22852,19913.33
5975,22876,19916.67
5976,22892,19920.00
5977,22908,19923.33
5978,22924,19926.67
5979,22936,19930.00
5980,22952,19933.33
5981,22964,19936.67
5982,22980,19940.00
5983,22992,19943.33
5984,23012,19946.67
5985,23036,19950.00
5986,23032,19953.33
5987,22960,19956.67
5988,22820,19960.00
5989,22644,19963.33
5990,22480,19966.67
5991,22364,19970.00
5992,22304,19973.33
5993,22296,19976.67
5994,22316,19980.00
5995,22348,19983.33
5996,22384,19986.67
5997,22420,19990.00
5998,22456,19993.33
5999,22492,19996.67
