Sample_Index,IR_Value,Timestamp_ms
0,19852,0.00
1,20016,10.00
2,19996,20.00
3,20376,30.00
4,21036,40.00
5,22060,50.00
6,22548,60.00
7,22928,70.00
8,23512,80.00
9,24052,90.00
10,24540,100.00
11,24884,110.00
12,25104,120.00
13,25296,130.00
14,25484,140.00
15,25648,150.00
16,25780,160.00
17,25848,170.00
18,25856,180.00
19,25868,190.00
20,25880,200.00
21,25892,210.00
22,25900,220.00
23,25920,230.00
24,25932,240.00
25,25944,250.00
26,25884,260.00
27,25716,270.00
28,25544,280.00
29,25452,290.00
30,25424,300.00
31,25428,310.00
32,25452,320.00
33,25480,330.00
34,25488,340.00
35,25492,350.00
36,25528,360.00
37,25564,370.00
38,25608,380.00
39,25648,390.00
40,25672,400.00
41,25688,410.00
42,25660,420.00
43,25524,430.00
44,25332,440.00
45,25228,450.00
46,25208,460.00
47,25208,470.00
48,25228,480.00
49,25264,490.00
50,25272,500.00
51,25280,510.00
52,25312,520.00
53,25356,530.00
54,25404,540.00
55,25456,550.00
56,25504,560.00
57,25536,570.00
58,25572,580.00
59,25604,590.00
60,25556,600.00
61,25392,610.00
62,25252,620.00
63,25192,630.00
64,25188,640.00
65,25212,650.00
66,25256,660.00
67,25280,670.00
68,25292,680.00
69,25304,690.00
70,25320,700.00
71,25368,710.00
72,25412,720.00
73,25456,730.00
74,25492,740.00
75,25524,750.00
76,25552,760.00
77,25576,770.00
78,25588,780.00
79,25508,790.00
80,25328,800.00
81,25072,810.00
82,24700,820.00
83,24528,830.00
84,24500,840.00
85,24516,850.00
86,24508,860.00
87,24476,870.00
88,24456,880.00
89,24448,890.00
90,24500,900.00
91,24576,910.00
92,24652,920.00
93,24716,930.00
94,24776,940.00
95,24832,950.00
96,24888,960.00
97,24936,970.00
98,24900,980.00
99,24720,990.00
100,24504,1000.00
101,24368,1010.00
102,24332,1020.00
103,24344,1030.00
104,24392,1040.00
105,24428,1050.00
106,24448,1060.00
107,24452,1070.00
108,24480,1080.00
109,24524,1090.00
110,24580,1100.00
111,24632,1110.00
112,24680,1120.00
113,24728,1130.00
114,24776,1140.00
115,24820,1150.00
116,24852,1160.00
117,24780,1170.00
118,24588,1180.00
119,24408,1190.00
120,24336,1200.00
121,24336,1210.00
122,24376,1220.00
123,24444,1230.00
124,24480,1240.00
125,24472,1250.00
126,24456,1260.00
127,24464,1270.00
128,24500,1280.00
129,24548,1290.00
130,24600,1300.00
131,24656,1310.00
132,24696,1320.00
133,24640,1330.00
134,24440,1340.00
135,24256,1350.00
136,24192,1360.00
137,24212,1370.00
138,24264,1380.00
139,24324,1390.00
140,24356,1400.00
141,24356,1410.00
142,24360,1420.00
143,24388,1430.00
144,24440,1440.00
145,24496,1450.00
146,24556,1460.00
147,24620,1470.00
148,24612,1480.00
149,24440,1490.00
150,24196,1500.00
151,24060,1510.00
152,24044,1520.00
153,24068,1530.00
154,24124,1540.00
155,24180,1550.00
156,24212,1560.00
157,24216,1570.00
158,24240,1580.00
159,24284,1590.00
160,24332,1600.00
161,24396,1610.00
162,24448,1620.00
163,24500,1630.00
164,24484,1640.00
165,24284,1650.00
166,24044,1660.00
167,23936,1670.00
168,23932,1680.00
169,23956,1690.00
170,24012,1700.00
171,24068,1710.00
172,24096,1720.00
173,24104,1730.00
174,24132,1740.00
175,24184,1750.00
176,24248,1760.00
177,24320,1770.00
178,24400,1780.00
179,24480,1790.00
180,24548,1800.00
181,24608,1810.00
182,24572,1820.00
183,24368,1830.00
184,24164,1840.00
185,24080,1850.00
186,24092,1860.00
187,24128,1870.00
188,24196,1880.00
189,24244,1890.00
190,24260,1900.00
191,24284,1910.00
192,24328,1920.00
193,24376,1930.00
194,24436,1940.00
195,24492,1950.00
196,24540,1960.00
197,24580,1970.00
198,24620,1980.00
199,24660,1990.00
200,24692,2000.00
201,24612,2010.00
202,24412,2020.00
203,24240,2030.00
204,24180,2040.00
205,24200,2050.00
206,24252,2060.00
207,24296,2070.00
208,24308,2080.00
209,24300,2090.00
210,24308,2100.00
211,24328,2110.00
212,24368,2120.00
213,24416,2130.00
214,24464,2140.00
215,24512,2150.00
216,24552,2160.00
217,24588,2170.00
218,24620,2180.00
219,24608,2190.00
220,24444,2200.00
221,24216,2210.00
222,24092,2220.00
223,24088,2230.00
224,24136,2240.00
225,24204,2250.00
226,24256,2260.00
227,24276,2270.00
228,24284,2280.00
229,24312,2290.00
230,24352,2300.00
231,24400,2310.00
232,24448,2320.00
233,24500,2330.00
234,24540,2340.00
235,24572,2350.00
236,24604,2360.00
237,24636,2370.00
238,24568,2380.00
239,24376,2390.00
240,24200,2400.00
241,24128,2410.00
242,24156,2420.00
243,24220,2430.00
244,24280,2440.00
245,24300,2450.00
246,24300,2460.00
247,24300,2470.00
248,24316,2480.00
249,24352,2490.00
250,24404,2500.00
251,24448,2510.00
252,24488,2520.00
253,24528,2530.00
254,24552,2540.00
255,24476,2550.00
256,24276,2560.00
257,24092,2570.00
258,24016,2580.00
259,24040,2590.00
260,24096,2600.00
261,24148,2610.00
262,24160,2620.00
263,24148,2630.00
264,24156,2640.00
265,24192,2650.00
266,24236,2660.00
267,24292,2670.00
268,24340,2680.00
269,24388,2690.00
270,24420,2700.00
271,24328,2710.00
272,24092,2720.00
273,23904,2730.00
274,23836,2740.00
275,23848,2750.00
276,23892,2760.00
277,23940,2770.00
278,23960,2780.00
279,23952,2790.00
280,23944,2800.00
281,23964,2810.00
282,24004,2820.00
283,24060,2830.00
284,24116,2840.00
285,24172,2850.00
286,24192,2860.00
287,24056,2870.00
288,23800,2880.00
289,23616,2890.00
290,23552,2900.00
291,23584,2910.00
292,23640,2920.00
293,23676,2930.00
294,23688,2940.00
295,23672,2950.00
296,23676,2960.00
297,23708,2970.00
298,23768,2980.00
299,23832,2990.00
300,23888,3000.00
301,23940,3010.00
302,23984,3020.00
303,23880,3030.00
304,23600,3040.00
305,23344,3050.00
306,23248,3060.00
307,23244,3070.00
308,23276,3080.00
309,23324,3090.00
310,23356,3100.00
311,23368,3110.00
312,23384,3120.00
313,23428,3130.00
314,23488,3140.00
315,23560,3150.00
316,23624,3160.00
317,23680,3170.00
318,23728,3180.00
319,23780,3190.00
320,23844,3200.00
321,23788,3210.00
322,23528,3220.00
323,23284,3230.00
324,23172,3240.00
325,23160,3250.00
326,23196,3260.00
327,23256,3270.00
328,23304,3280.00
329,23328,3290.00
330,23344,3300.00
331,23384,3310.00
332,23448,3320.00
333,23548,3330.00
334,23660,3340.00
335,23724,3350.00
336,23792,3360.00
337,23844,3370.00
338,23880,3380.00
339,23928,3390.00
340,23980,3400.00
341,23960,3410.00
342,23744,3420.00
343,23496,3430.00
344,23364,3440.00
345,23332,3450.00
346,23344,3460.00
347,23384,3470.00
348,23428,3480.00
349,23452,3490.00
350,23468,3500.00
351,23508,3510.00
352,23564,3520.00
353,23628,3530.00
354,23708,3540.00
355,23780,3550.00
356,23836,3560.00
357,23884,3570.00
358,23932,3580.00
359,23980,3590.00
360,24008,3600.00
361,23884,3610.00
362,23632,3620.00
363,23444,3630.00
364,23392,3640.00
365,23400,3650.00
366,23448,3660.00
367,23508,3670.00
368,23536,3680.00
369,23548,3690.00
370,23560,3700.00
371,23604,3710.00
372,23660,3720.00
373,23716,3730.00
374,23776,3740.00
375,23832,3750.00
376,23888,3760.00
377,23940,3770.00
378,23996,3780.00
379,24060,3790.00
380,24092,3800.00
381,23968,3810.00
382,23728,3820.00
383,23568,3830.00
384,23536,3840.00
385,23544,3850.00
386,23592,3860.00
387,23628,3870.00
388,23628,3880.00
389,23624,3890.00
390,23652,3900.00
391,23700,3910.00
392,23768,3920.00
393,23832,3930.00
394,23892,3940.00
395,23948,3950.00
396,23988,3960.00
397,24024,3970.00
398,24076,3980.00
399,24124,3990.00
400,24068,4000.00
401,23844,4010.00
402,23620,4020.00
403,23536,4030.00
404,23548,4040.00
405,23584,4050.00
406,23648,4060.00
407,23672,4070.00
408,23684,4080.00
409,23696,4090.00
410,23740,4100.00
411,23804,4110.00
412,23868,4120.00
413,23940,4130.00
414,24000,4140.00
415,24052,4150.00
416,24096,4160.00
417,24152,4170.00
418,24196,4180.00
419,24108,4190.00
420,23884,4200.00
421,23712,4210.00
422,23664,4220.00
423,23692,4230.00
424,23756,4240.00
425,23812,4250.00
426,23836,4260.00
427,23836,4270.00
428,23852,4280.00
429,23884,4290.00
430,23944,4300.00
431,24008,4310.00
432,24064,4320.00
433,24112,4330.00
434,24156,4340.00
435,24192,4350.00
436,24208,4360.00
437,24088,4370.00
438,23852,4380.00
439,23688,4390.00
440,23656,4400.00
441,23688,4410.00
442,23752,4420.00
443,23800,4430.00
444,23820,4440.00
445,23820,4450.00
446,23836,4460.00
447,23876,4470.00
448,23932,4480.00
449,24004,4490.00
450,24096,4500.00
451,24192,4510.00
452,24288,4520.00
453,24344,4530.00
454,24256,4540.00
455,23952,4550.00
456,23628,4560.00
457,23476,4570.00
458,23456,4580.00
459,23480,4590.00
460,23500,4600.00
461,23500,4610.00
462,23380,4620.00
463,23236,4630.00
464,23160,4640.00
465,23184,4650.00
466,23272,4660.00
467,23368,4670.00
468,23448,4680.00
469,23492,4690.00
470,23324,4700.00
471,23040,4710.00
472,22900,4720.00
473,22904,4730.00
474,22968,4740.00
475,23072,4750.00
476,23148,4760.00
477,23180,4770.00
478,23204,4780.00
479,23256,4790.00
480,23348,4800.00
481,23456,4810.00
482,23564,4820.00
483,23644,4830.00
484,23700,4840.00
485,23588,4850.00
486,23260,4860.00
487,23024,4870.00
488,22996,4880.00
489,23028,4890.00
490,23072,4900.00
491,23152,4910.00
492,23204,4920.00
493,23224,4930.00
494,23260,4940.00
495,23320,4950.00
496,23412,4960.00
497,23508,4970.00
498,23600,4980.00
499,23680,4990.00
500,23700,5000.00
501,23496,5010.00
502,23172,5020.00
503,22996,5030.00
504,22984,5040.00
505,23008,5050.00
506,23060,5060.00
507,23116,5070.00
508,23144,5080.00
509,23144,5090.00
510,23172,5100.00
511,23244,5110.00
512,23348,5120.00
513,23440,5130.00
514,23544,5140.00
515,23624,5150.00
516,23676,5160.00
517,23660,5170.00
518,23428,5180.00
519,23116,5190.00
520,22992,5200.00
521,22996,5210.00
522,23028,5220.00
523,23108,5230.00
524,23164,5240.00
525,23188,5250.00
526,23212,5260.00
527,23260,5270.00
528,23336,5280.00
529,23444,5290.00
530,23552,5300.00
531,23652,5310.00
532,23744,5320.00
533,23832,5330.00
534,23904,5340.00
535,23904,5350.00
536,23696,5360.00
537,23420,5370.00
538,23304,5380.00
539,23320,5390.00
540,23384,5400.00
541,23460,5410.00
542,23544,5420.00
543,23592,5430.00
544,23652,5440.00
545,23708,5450.00
546,23780,5460.00
547,23860,5470.00
548,23928,5480.00
549,23968,5490.00
550,23988,5500.00
551,24020,5510.00
552,24056,5520.00
553,24096,5530.00
554,23992,5540.00
555,23700,5550.00
556,23456,5560.00
557,23388,5570.00
558,23416,5580.00
559,23480,5590.00
560,23540,5600.00
561,23560,5610.00
562,23548,5620.00
563,23552,5630.00
564,23600,5640.00
565,23676,5650.00
566,23760,5660.00
567,23836,5670.00
568,23908,5680.00
569,23972,5690.00
570,24024,5700.00
571,23964,5710.00
572,23692,5720.00
573,23404,5730.00
574,23280,5740.00
575,23264,5750.00
576,23292,5760.00
577,23348,5770.00
578,23400,5780.00
579,23420,5790.00
580,23456,5800.00
581,23520,5810.00
582,23608,5820.00
583,23696,5830.00
584,23768,5840.00
585,23824,5850.00
586,23876,5860.00
587,23928,5870.00
588,23944,5880.00
589,23764,5890.00
590,23452,5900.00
591,23272,5910.00
592,23240,5920.00
593,23256,5930.00
594,23300,5940.00
595,23356,5950.00
596,23400,5960.00
597,23424,5970.00
598,23436,5980.00
599,23468,5990.00
600,23528,6000.00
601,23604,6010.00
602,23672,6020.00
603,23724,6030.00
604,23768,6040.00
605,23812,6050.00
606,23812,6060.00
607,23616,6070.00
608,23300,6080.00
609,23136,6090.00
610,23124,6100.00
611,23148,6110.00
612,23200,6120.00
613,23252,6130.00
614,23268,6140.00
615,23252,6150.00
616,23272,6160.00
617,23328,6170.00
618,23396,6180.00
619,23476,6190.00
620,23552,6200.00
621,23628,6210.00
622,23696,6220.00
623,23772,6230.00
624,23836,6240.00
625,23796,6250.00
626,23532,6260.00
627,23256,6270.00
628,23156,6280.00
629,23172,6290.00
630,23244,6300.00
631,23316,6310.00
632,23372,6320.00
633,23412,6330.00
634,23436,6340.00
635,23488,6350.00
636,23548,6360.00
637,23632,6370.00
638,23716,6380.00
639,23812,6390.00
640,23908,6400.00
641,23964,6410.00
642,24008,6420.00
643,24060,6430.00
644,24004,6440.00
645,23720,6450.00
646,23452,6460.00
647,23396,6470.00
648,23436,6480.00
649,23536,6490.00
650,23652,6500.00
651,23708,6510.00
652,23720,6520.00
653,23716,6530.00
654,23748,6540.00
655,23804,6550.00
656,23888,6560.00
657,23992,6570.00
658,24060,6580.00
659,24124,6590.00
660,24152,6600.00
661,24172,6610.00
662,24072,6620.00
663,23784,6630.00
664,23528,6640.00
665,23456,6650.00
666,23504,6660.00
667,23588,6670.00
668,23660,6680.00
669,23680,6690.00
670,23656,6700.00
671,23620,6710.00
672,23648,6720.00
673,23712,6730.00
674,23788,6740.00
675,23856,6750.00
676,23916,6760.00
677,23976,6770.00
678,23908,6780.00
679,23640,6790.00
680,23408,6800.00
681,23372,6810.00
682,23412,6820.00
683,23492,6830.00
684,23568,6840.00
685,23624,6850.00
686,23620,6860.00
687,23632,6870.00
688,23688,6880.00
689,23808,6890.00
690,23908,6900.00
691,24020,6910.00
692,24096,6920.00
693,24116,6930.00
694,23924,6940.00
695,23600,6950.00
696,23404,6960.00
697,23360,6970.00
698,23388,6980.00
699,23448,6990.00
700,23528,7000.00
701,23576,7010.00
702,23612,7020.00
703,23640,7030.00
704,23696,7040.00
705,23780,7050.00
706,23876,7060.00
707,23984,7070.00
708,24064,7080.00
709,23936,7090.00
710,23660,7100.00
711,23476,7110.00
712,23432,7120.00
713,23472,7130.00
714,23556,7140.00
715,23644,7150.00
716,23692,7160.00
717,23712,7170.00
718,23744,7180.00
719,23788,7190.00
720,23844,7200.00
721,23920,7210.00
722,24020,7220.00
723,24052,7230.00
724,23812,7240.00
725,23388,7250.00
726,23096,7260.00
727,23012,7270.00
728,23032,7280.00
729,23120,7290.00
730,23244,7300.00
731,23340,7310.00
732,23400,7320.00
733,23456,7330.00
734,23532,7340.00
735,23624,7350.00
736,23736,7360.00
737,23848,7370.00
738,23924,7380.00
739,23796,7390.00
740,23480,7400.00
741,23244,7410.00
742,23168,7420.00
743,23168,7430.00
744,23228,7440.00
745,23316,7450.00
746,23388,7460.00
747,23416,7470.00
748,23456,7480.00
749,23512,7490.00
750,23592,7500.00
751,23684,7510.00
752,23772,7520.00
753,23856,7530.00
754,23916,7540.00
755,23780,7550.00
756,23468,7560.00
757,23244,7570.00
758,23180,7580.00
759,23188,7590.00
760,23240,7600.00
761,23332,7610.00
762,23420,7620.00
763,23468,7630.00
764,23500,7640.00
765,23556,7650.00
766,23640,7660.00
767,23736,7670.00
768,23824,7680.00
769,23912,7690.00
770,24000,7700.00
771,24064,7710.00
772,23948,7720.00
773,23660,7730.00
774,23432,7740.00
775,23364,7750.00
776,23372,7760.00
777,23432,7770.00
778,23528,7780.00
779,23612,7790.00
780,23660,7800.00
781,23696,7810.00
782,23748,7820.00
783,23828,7830.00
784,23924,7840.00
785,24012,7850.00
786,24084,7860.00
787,24168,7870.00
788,24236,7880.00
789,24300,7890.00
790,24260,7900.00
791,24064,7910.00
792,23860,7920.00
793,23776,7930.00
794,23764,7940.00
795,23796,7950.00
796,23868,7960.00
797,23936,7970.00
798,23992,7980.00
799,24032,7990.00
800,24084,8000.00
801,24148,8010.00
802,24220,8020.00
803,24300,8030.00
804,24372,8040.00
805,24432,8050.00
806,24496,8060.00
807,24556,8070.00
808,24592,8080.00
809,24500,8090.00
810,24304,8100.00
811,24152,8110.00
812,24088,8120.00
813,24088,8130.00
814,24116,8140.00
815,24168,8150.00
816,24212,8160.00
817,24240,8170.00
818,24268,8180.00
819,24304,8190.00
820,24360,8200.00
821,24424,8210.00
822,24480,8220.00
823,24536,8230.00
824,24588,8240.00
825,24640,8250.00
826,24688,8260.00
827,24704,8270.00
828,24580,8280.00
829,24376,8290.00
830,24228,8300.00
831,24192,8310.00
832,24196,8320.00
833,24232,8330.00
834,24284,8340.00
835,24320,8350.00
836,24344,8360.00
837,24360,8370.00
838,24392,8380.00
839,24440,8390.00
840,24500,8400.00
841,24552,8410.00
842,24604,8420.00
843,24648,8430.00
844,24700,8440.00
845,24728,8450.00
846,24660,8460.00
847,24464,8470.00
848,24276,8480.00
849,24180,8490.00
850,24168,8500.00
851,24192,8510.00
852,24248,8520.00
853,24292,8530.00
854,24316,8540.00
855,24332,8550.00
856,24360,8560.00
857,24400,8570.00
858,24452,8580.00
859,24512,8590.00
860,24564,8600.00
861,24612,8610.00
862,24656,8620.00
863,24704,8630.00
864,24736,8640.00
865,24632,8650.00
866,24412,8660.00
867,24208,8670.00
868,24112,8680.00
869,24080,8690.00
870,24088,8700.00
871,24120,8710.00
872,24140,8720.00
873,24132,8730.00
874,24124,8740.00
875,24140,8750.00
876,24172,8760.00
877,24216,8770.00
878,24264,8780.00
879,24308,8790.00
880,24352,8800.00
881,24404,8810.00
882,24408,8820.00
883,24248,8830.00
884,23972,8840.00
885,23780,8850.00
886,23716,8860.00
887,23716,8870.00
888,23756,8880.00
889,23808,8890.00
890,23852,8900.00
891,23892,8910.00
892,23928,8920.00
893,23988,8930.00
894,24064,8940.00
895,24144,8950.00
896,24220,8960.00
897,24284,8970.00
898,24344,8980.00
899,24400,8990.00
900,24360,9000.00
901,24136,9010.00
902,23872,9020.00
903,23724,9030.00
904,23668,9040.00
905,23660,9050.00
906,23692,9060.00
907,23728,9070.00
908,23744,9080.00
909,23748,9090.00
910,23776,9100.00
911,23820,9110.00
912,23880,9120.00
913,23952,9130.00
914,24032,9140.00
915,24096,9150.00
916,24140,9160.00
917,24040,9170.00
918,23768,9180.00
919,23544,9190.00
920,23468,9200.00
921,23472,9210.00
922,23520,9220.00
923,23592,9230.00
924,23648,9240.00
925,23676,9250.00
926,23712,9260.00
927,23752,9270.00
928,23816,9280.00
929,23892,9290.00
930,23972,9300.00
931,24052,9310.00
932,24132,9320.00
933,24212,9330.00
934,24220,9340.00
935,24032,9350.00
936,23764,9360.00
937,23620,9370.00
938,23596,9380.00
939,23624,9390.00
940,23696,9400.00
941,23780,9410.00
942,23832,9420.00
943,23860,9430.00
944,23908,9440.00
945,23968,9450.00
946,24044,9460.00
947,24120,9470.00
948,24192,9480.00
949,24248,9490.00
950,24300,9500.00
951,24336,9510.00
952,24224,9520.00
953,23948,9530.00
954,23720,9540.00
955,23648,9550.00
956,23660,9560.00
957,23708,9570.00
958,23788,9580.00
959,23844,9590.00
960,23872,9600.00
961,23896,9610.00
962,23940,9620.00
963,24008,9630.00
964,24088,9640.00
965,24164,9650.00
966,24236,9660.00
967,24300,9670.00
968,24360,9680.00
969,24388,9690.00
970,24252,9700.00
971,23960,9710.00
972,23736,9720.00
973,23660,9730.00
974,23664,9740.00
975,23712,9750.00
976,23788,9760.00
977,23848,9770.00
978,23888,9780.00
979,23912,9790.00
980,23956,9800.00
981,24024,9810.00
982,24104,9820.00
983,24192,9830.00
984,24272,9840.00
985,24340,9850.00
986,24400,9860.00
987,24448,9870.00
988,24380,9880.00
989,24124,9890.00
990,23856,9900.00
991,23720,9910.00
992,23700,9920.00
993,23724,9930.00
994,23780,9940.00
995,23844,9950.00
996,23880,9960.00
997,23896,9970.00
998,23920,9980.00
999,23976,9990.00
1000,24048,10000.00
1001,24132,10010.00
1002,24204,10020.00
1003,24272,10030.00
1004,24328,10040.00
1005,24384,10050.00
1006,24352,10060.00
1007,24124,10070.00
1008,23836,10080.00
1009,23668,10090.00
1010,23620,10100.00
1011,23632,10110.00
1012,23696,10120.00
1013,23768,10130.00
1014,23812,10140.00
1015,23840,10150.00
1016,23872,10160.00
1017,23924,10170.00
1018,24000,10180.00
1019,24076,10190.00
1020,24160,10200.00
1021,24228,10210.00
1022,24296,10220.00
1023,24252,10230.00
1024,24004,10240.00
1025,23736,10250.00
1026,23608,10260.00
1027,23588,10270.00
1028,23608,10280.00
1029,23680,10290.00
1030,23756,10300.00
1031,23800,10310.00
1032,23820,10320.00
1033,23856,10330.00
1034,23916,10340.00
1035,23992,10350.00
1036,24076,10360.00
1037,24156,10370.00
1038,24228,10380.00
1039,24288,10390.00
1040,24348,10400.00
1041,24304,10410.00
1042,24056,10420.00
1043,23760,10430.00
1044,23612,10440.00
1045,23572,10450.00
1046,23584,10460.00
1047,23644,10470.00
1048,23720,10480.00
1049,23764,10490.00
1050,23788,10500.00
1051,23816,10510.00
1052,23872,10520.00
1053,23940,10530.00
1054,24020,10540.00
1055,24108,10550.00
1056,24192,10560.00
1057,24268,10570.00
1058,24340,10580.00
1059,24412,10590.00
1060,24392,10600.00
1061,24148,10610.00
1062,23836,10620.00
1063,23648,10630.00
1064,23576,10640.00
1065,23564,10650.00
1066,23588,10660.00
1067,23616,10670.00
1068,23608,10680.00
1069,23592,10690.00
1070,23608,10700.00
1071,23648,10710.00
1072,23708,10720.00
1073,23776,10730.00
1074,23832,10740.00
1075,23876,10750.00
1076,23916,10760.00
1077,23948,10770.00
1078,23872,10780.00
1079,23572,10790.00
1080,23272,10800.00
1081,23132,10810.00
1082,23096,10820.00
1083,23108,10830.00
1084,23164,10840.00
1085,23232,10850.00
1086,23276,10860.00
1087,23284,10870.00
1088,23316,10880.00
1089,23368,10890.00
1090,23436,10900.00
1091,23504,10910.00
1092,23568,10920.00
1093,23624,10930.00
1094,23676,10940.00
1095,23732,10950.00
1096,23752,10960.00
1097,23540,10970.00
1098,23180,10980.00
1099,22936,10990.00
1100,22868,11000.00
1101,22860,11010.00
1102,22908,11020.00
1103,22984,11030.00
1104,23060,11040.00
1105,23096,11050.00
1106,23132,11060.00
1107,23188,11070.00
1108,23272,11080.00
1109,23368,11090.00
1110,23464,11100.00
1111,23548,11110.00
1112,23656,11120.00
1113,23748,11130.00
1114,23832,11140.00
1115,23872,11150.00
1116,23716,11160.00
1117,23352,11170.00
1118,23064,11180.00
1119,22956,11190.00
1120,22940,11200.00
1121,22960,11210.00
1122,23004,11220.00
1123,23024,11230.00
1124,23020,11240.00
1125,23044,11250.00
1126,23108,11260.00
1127,23196,11270.00
1128,23280,11280.00
1129,23364,11290.00
1130,23420,11300.00
1131,23476,11310.00
1132,23556,11320.00
1133,23536,11330.00
1134,23264,11340.00
1135,22940,11350.00
1136,22804,11360.00
1137,22804,11370.00
1138,22868,11380.00
1139,22968,11390.00
1140,23052,11400.00
1141,23092,11410.00
1142,23108,11420.00
1143,23152,11430.00
1144,23232,11440.00
1145,23340,11450.00
1146,23444,11460.00
1147,23532,11470.00
1148,23596,11480.00
1149,23648,11490.00
1150,23692,11500.00
1151,23560,11510.00
1152,23216,11520.00
1153,22944,11530.00
1154,22856,11540.00
1155,22876,11550.00
1156,22940,11560.00
1157,23044,11570.00
1158,23120,11580.00
1159,23148,11590.00
1160,23180,11600.00
1161,23248,11610.00
1162,23324,11620.00
1163,23404,11630.00
1164,23480,11640.00
1165,23564,11650.00
1166,23632,11660.00
1167,23700,11670.00
1168,23764,11680.00
1169,23696,11690.00
1170,23380,11700.00
1171,23072,11710.00
1172,22952,11720.00
1173,22952,11730.00
1174,23004,11740.00
1175,23092,11750.00
1176,23160,11760.00
1177,23200,11770.00
1178,23248,11780.00
1179,23332,11790.00
1180,23428,11800.00
1181,23528,11810.00
1182,23628,11820.00
1183,23740,11830.00
1184,23820,11840.00
1185,23900,11850.00
1186,23968,11860.00
1187,24028,11870.00
1188,23912,11880.00
1189,23572,11890.00
1190,23240,11900.00
1191,23096,11910.00
1192,23096,11920.00
1193,23176,11930.00
1194,23284,11940.00
1195,23348,11950.00
1196,23368,11960.00
1197,23376,11970.00
1198,23424,11980.00
1199,23496,11990.00
1200,23576,12000.00
1201,23680,12010.00
1202,23768,12020.00
1203,23848,12030.00
1204,23916,12040.00
1205,23944,12050.00
1206,23732,12060.00
1207,23388,12070.00
1208,23156,12080.00
1209,23108,12090.00
1210,23148,12100.00
1211,23236,12110.00
1212,23320,12120.00
1213,23356,12130.00
1214,23348,12140.00
1215,23364,12150.00
1216,23420,12160.00
1217,23488,12170.00
1218,23572,12180.00
1219,23660,12190.00
1220,23744,12200.00
1221,23824,12210.00
1222,23856,12220.00
1223,23660,12230.00
1224,23332,12240.00
1225,23132,12250.00
1226,23108,12260.00
1227,23168,12270.00
1228,23252,12280.00
1229,23344,12290.00
1230,23368,12300.00
1231,23372,12310.00
1232,23412,12320.00
1233,23484,12330.00
1234,23572,12340.00
1235,23672,12350.00
1236,23760,12360.00
1237,23828,12370.00
1238,23904,12380.00
1239,23940,12390.00
1240,23784,12400.00
1241,23488,12410.00
1242,23276,12420.00
1243,23232,12430.00
1244,23268,12440.00
1245,23356,12450.00
1246,23440,12460.00
1247,23464,12470.00
1248,23456,12480.00
1249,23444,12490.00
1250,23460,12500.00
1251,23500,12510.00
1252,23552,12520.00
1253,23608,12530.00
1254,23680,12540.00
1255,23740,12550.00
1256,23796,12560.00
1257,23704,12570.00
1258,23412,12580.00
1259,23184,12590.00
1260,23112,12600.00
1261,23144,12610.00
1262,23224,12620.00
1263,23312,12630.00
1264,23360,12640.00
1265,23392,12650.00
1266,23432,12660.00
1267,23488,12670.00
1268,23560,12680.00
1269,23624,12690.00
1270,23672,12700.00
1271,23732,12710.00
1272,23804,12720.00
1273,23876,12730.00
1274,23868,12740.00
1275,23644,12750.00
1276,23388,12760.00
1277,23280,12770.00
1278,23284,12780.00
1279,23348,12790.00
1280,23408,12800.00
1281,23436,12810.00
1282,23424,12820.00
1283,23428,12830.00
1284,23468,12840.00
1285,23536,12850.00
1286,23628,12860.00
1287,23732,12870.00
1288,23824,12880.00
1289,23912,12890.00
1290,23996,12900.00
1291,24020,12910.00
1292,23824,12920.00
1293,23564,12930.00
1294,23436,12940.00
1295,23448,12950.00
1296,23532,12960.00
1297,23632,12970.00
1298,23704,12980.00
1299,23732,12990.00
1300,23744,13000.00
1301,23780,13010.00
1302,23836,13020.00
1303,23904,13030.00
1304,23976,13040.00
1305,24048,13050.00
1306,24132,13060.00
1307,24196,13070.00
1308,24168,13080.00
1309,23980,13090.00
1310,23800,13100.00
1311,23744,13110.00
1312,23752,13120.00
1313,23792,13130.00
1314,23832,13140.00
1315,23832,13150.00
1316,23820,13160.00
1317,23828,13170.00
1318,23872,13180.00
1319,23936,13190.00
1320,24000,13200.00
1321,24064,13210.00
1322,24136,13220.00
1323,24184,13230.00
1324,24216,13240.00
1325,24112,13250.00
1326,23904,13260.00
1327,23764,13270.00
1328,23760,13280.00
1329,23816,13290.00
1330,23900,13300.00
1331,23972,13310.00
1332,24000,13320.00
1333,24012,13330.00
1334,24024,13340.00
1335,24036,13350.00
1336,24068,13360.00
1337,24112,13370.00
1338,24164,13380.00
1339,24228,13390.00
1340,24284,13400.00
1341,24248,13410.00
1342,24064,13420.00
1343,23900,13430.00
1344,23856,13440.00
1345,23888,13450.00
1346,23948,13460.00
1347,24016,13470.00
1348,24064,13480.00
1349,24076,13490.00
1350,24088,13500.00
1351,24132,13510.00
1352,24184,13520.00
1353,24244,13530.00
1354,24304,13540.00
1355,24360,13550.00
1356,24380,13560.00
1357,24228,13570.00
1358,23960,13580.00
1359,23792,13590.00
1360,23740,13600.00
1361,23736,13610.00
1362,23772,13620.00
1363,23820,13630.00
1364,23840,13640.00
1365,23852,13650.00
1366,23872,13660.00
1367,23920,13670.00
1368,23984,13680.00
1369,24040,13690.00
1370,24096,13700.00
1371,24148,13710.00
1372,24164,13720.00
1373,24024,13730.00
1374,23768,13740.00
1375,23616,13750.00
1376,23572,13760.00
1377,23572,13770.00
1378,23608,13780.00
1379,23676,13790.00
1380,23724,13800.00
1381,23748,13810.00
1382,23780,13820.00
1383,23824,13830.00
1384,23884,13840.00
1385,23952,13850.00
1386,24000,13860.00
1387,24060,13870.00
1388,24120,13880.00
1389,24160,13890.00
1390,24148,13900.00
1391,23944,13910.00
1392,23676,13920.00
1393,23536,13930.00
1394,23500,13940.00
1395,23512,13950.00
1396,23560,13960.00
1397,23616,13970.00
1398,23644,13980.00
1399,23648,13990.00
1400,23668,14000.00
1401,23720,14010.00
1402,23784,14020.00
1403,23844,14030.00
1404,23904,14040.00
1405,23952,14050.00
1406,23996,14060.00
1407,24040,14070.00
1408,24100,14080.00
1409,24140,14090.00
1410,24024,14100.00
1411,23760,14110.00
1412,23560,14120.00
1413,23504,14130.00
1414,23504,14140.00
1415,23540,14150.00
1416,23592,14160.00
1417,23616,14170.00
1418,23644,14180.00
1419,23700,14190.00
1420,23772,14200.00
1421,23852,14210.00
1422,23932,14220.00
1423,24020,14230.00
1424,24104,14240.00
1425,24164,14250.00
1426,24220,14260.00
1427,24264,14270.00
1428,24284,14280.00
1429,24188,14290.00
1430,23936,14300.00
1431,23700,14310.00
1432,23612,14320.00
1433,23612,14330.00
1434,23640,14340.00
1435,23688,14350.00
1436,23708,14360.00
1437,23704,14370.00
1438,23720,14380.00
1439,23768,14390.00
1440,23836,14400.00
1441,23904,14410.00
1442,23976,14420.00
1443,24032,14430.00
1444,24080,14440.00
1445,24128,14450.00
1446,24172,14460.00
1447,24176,14470.00
1448,23976,14480.00
1449,23636,14490.00
1450,23436,14500.00
1451,23380,14510.00
1452,23380,14520.00
1453,23420,14530.00
1454,23480,14540.00
1455,23520,14550.00
1456,23532,14560.00
1457,23548,14570.00
1458,23584,14580.00
1459,23656,14590.00
1460,23740,14600.00
1461,23824,14610.00
1462,23900,14620.00
1463,23964,14630.00
1464,24028,14640.00
1465,24044,14650.00
1466,23864,14660.00
1467,23536,14670.00
1468,23328,14680.00
1469,23284,14690.00
1470,23308,14700.00
1471,23364,14710.00
1472,23436,14720.00
1473,23488,14730.00
1474,23532,14740.00
1475,23596,14750.00
1476,23684,14760.00
1477,23784,14770.00
1478,23876,14780.00
1479,23972,14790.00
1480,24052,14800.00
1481,24128,14810.00
1482,24196,14820.00
1483,24260,14830.00
1484,24304,14840.00
1485,24152,14850.00
1486,23840,14860.00
1487,23608,14870.00
1488,23560,14880.00
1489,23588,14890.00
1490,23660,14900.00
1491,23732,14910.00
1492,23764,14920.00
1493,23760,14930.00
1494,23752,14940.00
1495,23776,14950.00
1496,23828,14960.00
1497,23892,14970.00
1498,23960,14980.00
1499,24020,14990.00
1500,24084,15000.00
1501,24148,15010.00
1502,24176,15020.00
1503,24004,15030.00
1504,23688,15040.00
1505,23476,15050.00
1506,23432,15060.00
1507,23448,15070.00
1508,23504,15080.00
1509,23592,15090.00
1510,23656,15100.00
1511,23672,15110.00
1512,23684,15120.00
1513,23728,15130.00
1514,23796,15140.00
1515,23880,15150.00
1516,23944,15160.00
1517,24012,15170.00
1518,24076,15180.00
1519,24116,15190.00
1520,24016,15200.00
1521,23700,15210.00
1522,23412,15220.00
1523,23312,15230.00
1524,23312,15240.00
1525,23340,15250.00
1526,23412,15260.00
1527,23460,15270.00
1528,23492,15280.00
1529,23512,15290.00
1530,23556,15300.00
1531,23624,15310.00
1532,23712,15320.00
1533,23804,15330.00
1534,23872,15340.00
1535,23968,15350.00
1536,24040,15360.00
1537,24092,15370.00
1538,24016,15380.00
1539,23704,15390.00
1540,23392,15400.00
1541,23284,15410.00
1542,23312,15420.00
1543,23384,15430.00
1544,23488,15440.00
1545,23560,15450.00
1546,23548,15460.00
1547,23512,15470.00
1548,23500,15480.00
1549,23512,15490.00
1550,23548,15500.00
1551,23608,15510.00
1552,23664,15520.00
1553,23716,15530.00
1554,23768,15540.00
1555,23800,15550.00
1556,23620,15560.00
1557,23280,15570.00
1558,23048,15580.00
1559,23004,15590.00
1560,23052,15600.00
1561,23152,15610.00
1562,23256,15620.00
1563,23316,15630.00
1564,23352,15640.00
1565,23396,15650.00
1566,23488,15660.00
1567,23596,15670.00
1568,23700,15680.00
1569,23812,15690.00
1570,23900,15700.00
1571,23992,15710.00
1572,24080,15720.00
1573,24036,15730.00
1574,23756,15740.00
1575,23432,15750.00
1576,23304,15760.00
1577,23316,15770.00
1578,23384,15780.00
1579,23480,15790.00
1580,23556,15800.00
1581,23572,15810.00
1582,23564,15820.00
1583,23588,15830.00
1584,23648,15840.00
1585,23728,15850.00
1586,23804,15860.00
1587,23868,15870.00
1588,23924,15880.00
1589,23916,15890.00
1590,23688,15900.00
1591,23388,15910.00
1592,23252,15920.00
1593,23260,15930.00
1594,23344,15940.00
1595,23452,15950.00
1596,23520,15960.00
1597,23536,15970.00
1598,23536,15980.00
1599,23576,15990.00
1600,23648,16000.00
1601,23736,16010.00
1602,23820,16020.00
1603,23896,16030.00
1604,23980,16040.00
1605,24052,16050.00
1606,24108,16060.00
1607,23972,16070.00
1608,23632,16080.00
1609,23376,16090.00
1610,23312,16100.00
1611,23328,16110.00
1612,23376,16120.00
1613,23456,16130.00
1614,23516,16140.00
1615,23548,16150.00
1616,23572,16160.00
1617,23624,16170.00
1618,23704,16180.00
1619,23788,16190.00
1620,23864,16200.00
1621,23928,16210.00
1622,23984,16220.00
1623,24028,16230.00
1624,23896,16240.00
1625,23564,16250.00
1626,23320,16260.00
1627,23256,16270.00
1628,23248,16280.00
1629,23276,16290.00
1630,23336,16300.00
1631,23380,16310.00
1632,23396,16320.00
1633,23412,16330.00
1634,23440,16340.00
1635,23496,16350.00
1636,23576,16360.00
1637,23672,16370.00
1638,23756,16380.00
1639,23836,16390.00
1640,23916,16400.00
1641,24028,16410.00
1642,24092,16420.00
1643,23912,16430.00
1644,23624,16440.00
1645,23448,16450.00
1646,23408,16460.00
1647,23404,16470.00
1648,23432,16480.00
1649,23476,16490.00
1650,23480,16500.00
1651,23468,16510.00
1652,23504,16520.00
1653,23580,16530.00
1654,23656,16540.00
1655,23720,16550.00
1656,23768,16560.00
1657,23824,16570.00
1658,23872,16580.00
1659,23924,16590.00
1660,23924,16600.00
1661,23692,16610.00
1662,23376,16620.00
1663,23220,16630.00
1664,23200,16640.00
1665,23212,16650.00
1666,23260,16660.00
1667,23336,16670.00
1668,23368,16680.00
1669,23396,16690.00
1670,23428,16700.00
1671,23496,16710.00
1672,23600,16720.00
1673,23708,16730.00
1674,23796,16740.00
1675,23872,16750.00
1676,23936,16760.00
1677,23992,16770.00
1678,24044,16780.00
1679,24028,16790.00
1680,23768,16800.00
1681,23444,16810.00
1682,23312,16820.00
1683,23320,16830.00
1684,23364,16840.00
1685,23428,16850.00
1686,23496,16860.00
1687,23536,16870.00
1688,23556,16880.00
1689,23588,16890.00
1690,23656,16900.00
1691,23732,16910.00
1692,23816,16920.00
1693,23904,16930.00
1694,23968,16940.00
1695,24020,16950.00
1696,24068,16960.00
1697,24112,16970.00
1698,24156,16980.00
1699,24064,16990.00
1700,23812,17000.00
1701,23604,17010.00
1702,23556,17020.00
1703,23592,17030.00
1704,23652,17040.00
1705,23704,17050.00
1706,23736,17060.00
1707,23744,17070.00
1708,23760,17080.00
1709,23804,17090.00
1710,23868,17100.00
1711,23948,17110.00
1712,24028,17120.00
1713,24096,17130.00
1714,24148,17140.00
1715,24200,17150.00
1716,24232,17160.00
1717,24268,17170.00
1718,24180,17180.00
1719,23904,17190.00
1720,23660,17200.00
1721,23596,17210.00
1722,23612,17220.00
1723,23660,17230.00
1724,23704,17240.00
1725,23704,17250.00
1726,23680,17260.00
1727,23680,17270.00
1728,23704,17280.00
1729,23776,17290.00
1730,23868,17300.00
1731,23948,17310.00
1732,24020,17320.00
1733,24088,17330.00
1734,24152,17340.00
1735,24208,17350.00
1736,24164,17360.00
1737,23940,17370.00
1738,23720,17380.00
1739,23652,17390.00
1740,23680,17400.00
1741,23760,17410.00
1742,23836,17420.00
1743,23876,17430.00
1744,23880,17440.00
1745,23900,17450.00
1746,23952,17460.00
1747,24032,17470.00
1748,24132,17480.00
1749,24212,17490.00
1750,24288,17500.00
1751,24360,17510.00
1752,24428,17520.00
1753,24408,17530.00
1754,24184,17540.00
1755,23912,17550.00
1756,23772,17560.00
1757,23788,17570.00
1758,23864,17580.00
1759,23956,17590.00
1760,24012,17600.00
1761,24040,17610.00
1762,24036,17620.00
1763,24052,17630.00
1764,24100,17640.00
1765,24164,17650.00
1766,24232,17660.00
1767,24304,17670.00
1768,24388,17680.00
1769,24372,17690.00
1770,24152,17700.00
1771,23876,17710.00
1772,23736,17720.00
1773,23736,17730.00
1774,23784,17740.00
1775,23856,17750.00
1776,23920,17760.00
1777,23952,17770.00
1778,23956,17780.00
1779,23984,17790.00
1780,24036,17800.00
1781,24100,17810.00
1782,24184,17820.00
1783,24260,17830.00
1784,24256,17840.00
1785,24032,17850.00
1786,23712,17860.00
1787,23544,17870.00
1788,23528,17880.00
1789,23568,17890.00
1790,23636,17900.00
1791,23704,17910.00
1792,23728,17920.00
1793,23728,17930.00
1794,23732,17940.00
1795,23776,17950.00
1796,23844,17960.00
1797,23928,17970.00
1798,24012,17980.00
1799,23996,17990.00
1800,23756,18000.00
1801,23456,18010.00
1802,23292,18020.00
1803,23208,18030.00
1804,23132,18040.00
1805,22996,18050.00
1806,22788,18060.00
1807,22488,18070.00
1808,21720,18080.00
1809,20848,18090.00
1810,20544,18100.00
1811,20532,18110.00
1812,20684,18120.00
1813,20908,18130.00
1814,21080,18140.00
1815,21164,18150.00
1816,21084,18160.00
1817,20852,18170.00
1818,20720,18180.00
1819,20752,18190.00
1820,20828,18200.00
1821,20944,18210.00
1822,21088,18220.00
1823,21192,18230.00
1824,21252,18240.00
1825,21296,18250.00
1826,21372,18260.00
1827,21448,18270.00
1828,21508,18280.00
1829,21544,18290.00
1830,21576,18300.00
1831,21584,18310.00
1832,21560,18320.00
1833,21508,18330.00
1834,21464,18340.00
1835,21444,18350.00
1836,21328,18360.00
1837,20972,18370.00
1838,20672,18380.00
1839,20588,18390.00
1840,20596,18400.00
1841,20648,18410.00
1842,20740,18420.00
1843,20828,18430.00
1844,20888,18440.00
1845,20920,18450.00
1846,20948,18460.00
1847,21000,18470.00
1848,21052,18480.00
1849,21088,18490.00
1850,21136,18500.00
1851,21184,18510.00
1852,21204,18520.00
1853,21216,18530.00
1854,21232,18540.00
1855,21192,18550.00
1856,21004,18560.00
1857,20668,18570.00
1858,20488,18580.00
1859,20480,18590.00
1860,20536,18600.00
1861,20656,18610.00
1862,20720,18620.00
1863,20764,18630.00
1864,20840,18640.00
1865,20852,18650.00
1866,20884,18660.00
1867,20976,18670.00
1868,21076,18680.00
1869,21152,18690.00
1870,21192,18700.00
1871,21220,18710.00
1872,21268,18720.00
1873,21308,18730.00
1874,21340,18740.00
1875,21408,18750.00
1876,21468,18760.00
1877,21360,18770.00
1878,21040,18780.00
1879,20804,18790.00
1880,20760,18800.00
1881,20776,18810.00
1882,20804,18820.00
1883,20856,18830.00
1884,20916,18840.00
1885,20960,18850.00
1886,20984,18860.00
1887,21048,18870.00
1888,21168,18880.00
1889,21240,18890.00
1890,21312,18900.00
1891,21404,18910.00
1892,21476,18920.00
1893,21536,18930.00
1894,21580,18940.00
1895,21612,18950.00
1896,21660,18960.00
1897,21720,18970.00
1898,21688,18980.00
1899,21412,18990.00
1900,21116,19000.00
1901,21008,19010.00
1902,21028,19020.00
1903,21072,19030.00
1904,21152,19040.00
1905,21252,19050.00
1906,21308,19060.00
1907,21324,19070.00
1908,21320,19080.00
1909,21336,19090.00
1910,21360,19100.00
1911,21396,19110.00
1912,21428,19120.00
1913,21440,19130.00
1914,21516,19140.00
1915,21604,19150.00
1916,21676,19160.00
1917,21736,19170.00
1918,21792,19180.00
1919,21688,19190.00
1920,21392,19200.00
1921,21160,19210.00
1922,21124,19220.00
1923,21140,19230.00
1924,21148,19240.00
1925,21184,19250.00
1926,21212,19260.00
1927,21188,19270.00
1928,21180,19280.00
1929,21244,19290.00
1930,21336,19300.00
1931,21440,19310.00
1932,21548,19320.00
1933,21628,19330.00
1934,21692,19340.00
1935,21752,19350.00
1936,21824,19360.00
1937,21900,19370.00
1938,21956,19380.00
1939,21816,19390.00
1940,21480,19400.00
1941,21256,19410.00
1942,21220,19420.00
1943,21280,19430.00
1944,21388,19440.00
1945,21504,19450.00
1946,21556,19460.00
1947,21560,19470.00
1948,21568,19480.00
1949,21592,19490.00
1950,21648,19500.00
1951,21740,19510.00
1952,21840,19520.00
1953,21908,19530.00
1954,21976,19540.00
1955,22040,19550.00
1956,22100,19560.00
1957,22148,19570.00
1958,22032,19580.00
1959,21724,19590.00
1960,21480,19600.00
1961,21436,19610.00
1962,21480,19620.00
1963,21540,19630.00
1964,21604,19640.00
1965,21624,19650.00
1966,21592,19660.00
1967,21552,19670.00
1968,21536,19680.00
1969,21564,19690.00
1970,21632,19700.00
1971,21716,19710.00
1972,21792,19720.00
1973,21856,19730.00
1974,21912,19740.00
1975,21968,19750.00
1976,21956,19760.00
1977,21732,19770.00
1978,21432,19780.00
1979,21304,19790.00
1980,21340,19800.00
1981,21420,19810.00
1982,21520,19820.00
1983,21608,19830.00
1984,21708,19840.00
1985,21768,19850.00
1986,21828,19860.00
1987,21928,19870.00
1988,22020,19880.00
1989,22100,19890.00
1990,22152,19900.00
1991,22196,19910.00
1992,22248,19920.00
1993,22296,19930.00
1994,22324,19940.00
1995,22244,19950.00
1996,21980,19960.00
1997,21724,19970.00
1998,21632,19980.00
1999,21672,19990.00
2000,21784,20000.00
2001,21908,20010.00
2002,21980,20020.00
2003,22004,20030.00
2004,22008,20040.00
2005,22036,20050.00
2006,22080,20060.00
2007,22116,20070.00
2008,22136,20080.00
2009,22148,20090.00
2010,22160,20100.00
2011,22192,20110.00
2012,22116,20120.00
2013,21852,20130.00
2014,21660,20140.00
2015,21640,20150.00
2016,21728,20160.00
2017,21840,20170.00
2018,21920,20180.00
2019,21964,20190.00
2020,21976,20200.00
2021,21976,20210.00
2022,22024,20220.00
2023,22096,20230.00
2024,22160,20240.00
2025,22264,20250.00
2026,22352,20260.00
2027,22424,20270.00
2028,22412,20280.00
2029,22152,20290.00
2030,21820,20300.00
2031,21656,20310.00
2032,21680,20320.00
2033,21776,20330.00
2034,21868,20340.00
2035,21932,20350.00
2036,21936,20360.00
2037,21916,20370.00
2038,21948,20380.00
2039,21996,20390.00
2040,22036,20400.00
2041,22132,20410.00
2042,22248,20420.00
2043,22356,20430.00
2044,22448,20440.00
2045,22400,20450.00
2046,22128,20460.00
2047,21884,20470.00
2048,21832,20480.00
2049,21884,20490.00
2050,21952,20500.00
2051,22032,20510.00
2052,22060,20520.00
2053,22040,20530.00
2054,22040,20540.00
2055,22068,20550.00
2056,22152,20560.00
2057,22272,20570.00
2058,22396,20580.00
2059,22516,20590.00
2060,22604,20600.00
2061,22672,20610.00
2062,22580,20620.00
2063,22244,20630.00
2064,21908,20640.00
2065,21780,20650.00
2066,21776,20660.00
2067,21864,20670.00
2068,21992,20680.00
2069,22060,20690.00
2070,22108,20700.00
2071,22156,20710.00
2072,22228,20720.00
2073,22312,20730.00
2074,22384,20740.00
2075,22436,20750.00
2076,22484,20760.00
2077,22536,20770.00
2078,22596,20780.00
2079,22580,20790.00
2080,22368,20800.00
2081,22072,20810.00
2082,21928,20820.00
2083,21940,20830.00
2084,21964,20840.00
2085,22004,20850.00
2086,22032,20860.00
2087,22008,20870.00
2088,22028,20880.00
2089,22092,20890.00
2090,22160,20900.00
2091,22200,20910.00
2092,22232,20920.00
2093,22292,20930.00
2094,22340,20940.00
2095,22384,20950.00
2096,22412,20960.00
2097,22252,20970.00
2098,21952,20980.00
2099,21808,20990.00
2100,21864,21000.00
2101,21952,21010.00
2102,22044,21020.00
2103,22100,21030.00
2104,22108,21040.00
2105,22084,21050.00
2106,22076,21060.00
2107,22108,21070.00
2108,22172,21080.00
2109,22232,21090.00
2110,22268,21100.00
2111,22312,21110.00
2112,22376,21120.00
2113,22376,21130.00
2114,22188,21140.00
2115,21952,21150.00
2116,21904,21160.00
2117,22024,21170.00
2118,22212,21180.00
2119,22412,21190.00
2120,22560,21200.00
2121,22636,21210.00
2122,22656,21220.00
2123,22688,21230.00
2124,22740,21240.00
2125,22812,21250.00
2126,22876,21260.00
2127,22912,21270.00
2128,22924,21280.00
2129,22888,21290.00
2130,22696,21300.00
2131,22376,21310.00
2132,22152,21320.00
2133,22152,21330.00
2134,22252,21340.00
2135,22384,21350.00
2136,22452,21360.00
2137,22444,21370.00
2138,22396,21380.00
2139,22380,21390.00
2140,22412,21400.00
2141,22464,21410.00
2142,22508,21420.00
2143,22552,21430.00
2144,22616,21440.00
2145,22576,21450.00
2146,22308,21460.00
2147,22032,21470.00
2148,21956,21480.00
2149,22028,21490.00
2150,22124,21500.00
2151,22212,21510.00
2152,22244,21520.00
2153,22232,21530.00
2154,22216,21540.00
2155,22220,21550.00
2156,22260,21560.00
2157,22312,21570.00
2158,22356,21580.00
2159,22388,21590.00
2160,22308,21600.00
2161,22004,21610.00
2162,21704,21620.00
2163,21624,21630.00
2164,21688,21640.00
2165,21760,21650.00
2166,21828,21660.00
2167,21868,21670.00
2168,21880,21680.00
2169,21904,21690.00
2170,21924,21700.00
2171,21980,21710.00
2172,22068,21720.00
2173,22140,21730.00
2174,22200,21740.00
2175,22244,21750.00
2176,22204,21760.00
2177,21924,21770.00
2178,21620,21780.00
2179,21556,21790.00
2180,21652,21800.00
2181,21784,21810.00
2182,21932,21820.00
2183,22044,21830.00
2184,22084,21840.00
2185,22088,21850.00
2186,22100,21860.00
2187,22116,21870.00
2188,22128,21880.00
2189,22128,21890.00
2190,22128,21900.00
2191,22144,21910.00
2192,22180,21920.00
2193,22224,21930.00
2194,22116,21940.00
2195,21844,21950.00
2196,21692,21960.00
2197,21712,21970.00
2198,21784,21980.00
2199,21872,21990.00
2200,21964,22000.00
2201,22004,22010.00
2202,21996,22020.00
2203,21988,22030.00
2204,22012,22040.00
2205,22048,22050.00
2206,22092,22060.00
2207,22164,22070.00
2208,22248,22080.00
2209,22348,22090.00
2210,22456,22100.00
2211,22516,22110.00
2212,22328,22120.00
2213,21992,22130.00
2214,21808,22140.00
2215,21768,22150.00
2216,21780,22160.00
2217,21832,22170.00
2218,21840,22180.00
2219,21780,22190.00
2220,21740,22200.00
2221,21772,22210.00
2222,21848,22220.00
2223,21952,22230.00
2224,22044,22240.00
2225,22108,22250.00
2226,22164,22260.00
2227,22200,22270.00
2228,22252,22280.00
2229,22288,22290.00
2230,22116,22300.00
2231,21804,22310.00
2232,21664,22320.00
2233,21696,22330.00
2234,21748,22340.00
2235,21824,22350.00
2236,21888,22360.00
2237,21896,22370.00
2238,21904,22380.00
2239,21932,22390.00
2240,21992,22400.00
2241,22076,22410.00
2242,22164,22420.00
2243,22220,22430.00
2244,22252,22440.00
2245,22264,22450.00
2246,22272,22460.00
2247,22304,22470.00
2248,22352,22480.00
2249,22280,22490.00
2250,21976,22500.00
2251,21696,22510.00
2252,21668,22520.00
2253,21704,22530.00
2254,21736,22540.00
2255,21828,22550.00
2256,21920,22560.00
2257,21944,22570.00
2258,21944,22580.00
2259,21992,22590.00
2260,22060,22600.00
2261,22128,22610.00
2262,22184,22620.00
2263,22200,22630.00
2264,22224,22640.00
2265,22252,22650.00
2266,22268,22660.00
2267,22284,22670.00
2268,22312,22680.00
2269,22308,22690.00
2270,22180,22700.00
2271,21808,22710.00
2272,21524,22720.00
2273,21488,22730.00
2274,21512,22740.00
2275,21536,22750.00
2276,21604,22760.00
2277,21640,22770.00
2278,21648,22780.00
2279,21696,22790.00
2280,21768,22800.00
2281,21836,22810.00
2282,21892,22820.00
2283,21964,22830.00
2284,22016,22840.00
2285,22060,22850.00
2286,22120,22860.00
2287,22188,22870.00
2288,22228,22880.00
2289,22272,22890.00
2290,22324,22900.00
2291,22288,22910.00
2292,22000,22920.00
2293,21716,22930.00
2294,21664,22940.00
2295,21700,22950.00
2296,21740,22960.00
2297,21804,22970.00
2298,21860,22980.00
2299,21852,22990.00
2300,21872,23000.00
2301,21940,23010.00
2302,22036,23020.00
2303,22116,23030.00
2304,22196,23040.00
2305,22260,23050.00
2306,22312,23060.00
2307,22364,23070.00
2308,22420,23080.00
2309,22456,23090.00
2310,22500,23100.00
2311,22544,23110.00
2312,22484,23120.00
2313,22180,23130.00
2314,21860,23140.00
2315,21776,23150.00
2316,21764,23160.00
2317,21764,23170.00
2318,21800,23180.00
2319,21820,23190.00
2320,21812,23200.00
2321,21804,23210.00
2322,21816,23220.00
2323,21864,23230.00
2324,21880,23240.00
2325,21916,23250.00
2326,22000,23260.00
2327,22072,23270.00
2328,22144,23280.00
2329,22220,23290.00
2330,22276,23300.00
2331,22324,23310.00
2332,22236,23320.00
2333,21916,23330.00
2334,21644,23340.00
2335,21616,23350.00
2336,21692,23360.00
2337,21772,23370.00
2338,21872,23380.00
2339,21912,23390.00
2340,21904,23400.00
2341,21916,23410.00
2342,21964,23420.00
2343,22028,23430.00
2344,22076,23440.00
2345,22136,23450.00
2346,22212,23460.00
2347,22264,23470.00
2348,22300,23480.00
2349,22320,23490.00
2350,22300,23500.00
2351,22080,23510.00
2352,21772,23520.00
2353,21660,23530.00
2354,21728,23540.00
2355,21832,23550.00
2356,21956,23560.00
2357,22080,23570.00
2358,22136,23580.00
2359,22144,23590.00
2360,22132,23600.00
2361,22124,23610.00
2362,22148,23620.00
2363,22200,23630.00
2364,22264,23640.00
2365,22292,23650.00
2366,22328,23660.00
2367,22360,23670.00
2368,22300,23680.00
2369,22052,23690.00
2370,21808,23700.00
2371,21740,23710.00
2372,21816,23720.00
2373,21932,23730.00
2374,22032,23740.00
2375,22100,23750.00
2376,22108,23760.00
2377,22088,23770.00
2378,22060,23780.00
2379,22080,23790.00
2380,22140,23800.00
2381,22220,23810.00
2382,22304,23820.00
2383,22388,23830.00
2384,22336,23840.00
2385,22080,23850.00
2386,21912,23860.00
2387,21932,23870.00
2388,22028,23880.00
2389,22116,23890.00
2390,22196,23900.00
2391,22224,23910.00
2392,22200,23920.00
2393,22168,23930.00
2394,22220,23940.00
2395,22316,23950.00
2396,22380,23960.00
2397,22460,23970.00
2398,22536,23980.00
2399,22488,23990.00
2400,22172,24000.00
2401,21852,24010.00
2402,21780,24020.00
2403,21800,24030.00
2404,21800,24040.00
2405,21856,24050.00
2406,21920,24060.00
2407,21928,24070.00
2408,21916,24080.00
2409,21908,24090.00
2410,21920,24100.00
2411,21944,24110.00
2412,21972,24120.00
2413,22008,24130.00
2414,22012,24140.00
2415,21860,24150.00
2416,21484,24160.00
2417,21232,24170.00
2418,21224,24180.00
2419,21280,24190.00
2420,21324,24200.00
2421,21420,24210.00
2422,21520,24220.00
2423,21584,24230.00
2424,21608,24240.00
2425,21652,24250.00
2426,21728,24260.00
2427,21824,24270.00
2428,21916,24280.00
2429,22000,24290.00
2430,22060,24300.00
2431,22112,24310.00
2432,22136,24320.00
2433,21972,24330.00
2434,21620,24340.00
2435,21468,24350.00
2436,21448,24360.00
2437,21396,24370.00
2438,21372,24380.00
2439,21428,24390.00
2440,21428,24400.00
2441,21416,24410.00
2442,21464,24420.00
2443,21496,24430.00
2444,21528,24440.00
2445,21600,24450.00
2446,21660,24460.00
2447,21696,24470.00
2448,21760,24480.00
2449,21808,24490.00
2450,21844,24500.00
2451,21884,24510.00
2452,21936,24520.00
2453,21972,24530.00
2454,21748,24540.00
2455,21428,24550.00
2456,21324,24560.00
2457,21336,24570.00
2458,21360,24580.00
2459,21432,24590.00
2460,21532,24600.00
2461,21604,24610.00
2462,21660,24620.00
2463,21712,24630.00
2464,21784,24640.00
2465,21884,24650.00
2466,22008,24660.00
2467,22112,24670.00
2468,22204,24680.00
2469,22268,24690.00
2470,22288,24700.00
2471,22236,24710.00
2472,22144,24720.00
2473,22088,24730.00
2474,21936,24740.00
2475,21588,24750.00
2476,21428,24760.00
2477,21460,24770.00
2478,21508,24780.00
2479,21576,24790.00
2480,21636,24800.00
2481,21648,24810.00
2482,21680,24820.00
2483,21748,24830.00
2484,21848,24840.00
2485,21980,24850.00
2486,22076,24860.00
2487,22152,24870.00
2488,22172,24880.00
2489,22160,24890.00
2490,22156,24900.00
2491,22156,24910.00
2492,22084,24920.00
2493,21800,24930.00
2494,21524,24940.00
2495,21484,24950.00
2496,21552,24960.00
2497,21600,24970.00
2498,21632,24980.00
2499,21700,24990.00
2500,21744,25000.00
2501,21744,25010.00
2502,21744,25020.00
2503,21760,25030.00
2504,21812,25040.00
2505,21872,25050.00
2506,21896,25060.00
2507,21916,25070.00
2508,21944,25080.00
2509,21968,25090.00
2510,21884,25100.00
2511,21596,25110.00
2512,21372,25120.00
2513,21368,25130.00
2514,21440,25140.00
2515,21488,25150.00
2516,21584,25160.00
2517,21680,25170.00
2518,21732,25180.00
2519,21756,25190.00
2520,21800,25200.00
2521,21856,25210.00
2522,21936,25220.00
2523,22032,25230.00
2524,22100,25240.00
2525,22152,25250.00
2526,22196,25260.00
2527,22228,25270.00
2528,22216,25280.00
2529,21992,25290.00
2530,21668,25300.00
2531,21592,25310.00
2532,21680,25320.00
2533,21756,25330.00
2534,21828,25340.00
2535,21908,25350.00
2536,21932,25360.00
2537,21920,25370.00
2538,21924,25380.00
2539,21980,25390.00
2540,22080,25400.00
2541,22164,25410.00
2542,22244,25420.00
2543,22316,25430.00
2544,22336,25440.00
2545,22312,25450.00
2546,22284,25460.00
2547,22248,25470.00
2548,22000,25480.00
2549,21656,25490.00
2550,21528,25500.00
2551,21532,25510.00
2552,21580,25520.00
2553,21632,25530.00
2554,21672,25540.00
2555,21688,25550.00
2556,21708,25560.00
2557,21716,25570.00
2558,21764,25580.00
2559,21872,25590.00
2560,21988,25600.00
2561,22100,25610.00
2562,22208,25620.00
2563,22312,25630.00
2564,22408,25640.00
2565,22480,25650.00
2566,22488,25660.00
2567,22284,25670.00
2568,22028,25680.00
2569,21956,25690.00
2570,21972,25700.00
2571,21972,25710.00
2572,22024,25720.00
2573,22068,25730.00
2574,22092,25740.00
2575,22112,25750.00
2576,22160,25760.00
2577,22200,25770.00
2578,22240,25780.00
2579,22288,25790.00
2580,22328,25800.00
2581,22372,25810.00
2582,22440,25820.00
2583,22508,25830.00
2584,22516,25840.00
2585,22292,25850.00
2586,21928,25860.00
2587,21764,25870.00
2588,21852,25880.00
2589,21964,25890.00
2590,22076,25900.00
2591,22196,25910.00
2592,22260,25920.00
2593,22288,25930.00
2594,22344,25940.00
2595,22432,25950.00
2596,22528,25960.00
2597,22628,25970.00
2598,22704,25980.00
2599,22756,25990.00
2600,22800,26000.00
2601,22832,26010.00
2602,22720,26020.00
2603,22360,26030.00
2604,22016,26040.00
2605,21888,26050.00
2606,21940,26060.00
2607,22064,26070.00
2608,22172,26080.00
2609,22224,26090.00
2610,22244,26100.00
2611,22248,26110.00
2612,22268,26120.00
2613,22320,26130.00
2614,22384,26140.00
2615,22452,26150.00
2616,22520,26160.00
2617,22536,26170.00
2618,22316,26180.00
2619,21976,26190.00
2620,21844,26200.00
2621,21868,26210.00
2622,21908,26220.00
2623,21964,26230.00
2624,22040,26240.00
2625,22112,26250.00
2626,22120,26260.00
2627,22144,26270.00
2628,22212,26280.00
2629,22280,26290.00
2630,22344,26300.00
2631,22428,26310.00
2632,22508,26320.00
2633,22460,26330.00
2634,22180,26340.00
2635,21924,26350.00
2636,21908,26360.00
2637,21956,26370.00
2638,21996,26380.00
2639,22088,26390.00
2640,22140,26400.00
2641,22124,26410.00
2642,22100,26420.00
2643,22116,26430.00
2644,22172,26440.00
2645,22236,26450.00
2646,22288,26460.00
2647,22336,26470.00
2648,22400,26480.00
2649,22412,26490.00
2650,22200,26500.00
2651,21920,26510.00
2652,21852,26520.00
2653,21888,26530.00
2654,21928,26540.00
2655,21996,26550.00
2656,22072,26560.00
2657,22112,26570.00
2658,22112,26580.00
2659,22128,26590.00
2660,22164,26600.00
2661,22212,26610.00
2662,22292,26620.00
2663,22376,26630.00
2664,22440,26640.00
2665,22488,26650.00
2666,22532,26660.00
2667,22504,26670.00
2668,22260,26680.00
2669,21976,26690.00
2670,21888,26700.00
2671,21916,26710.00
2672,21940,26720.00
2673,21996,26730.00
2674,22084,26740.00
2675,22136,26750.00
2676,22148,26760.00
2677,22192,26770.00
2678,22248,26780.00
2679,22324,26790.00
2680,22456,26800.00
2681,22588,26810.00
2682,22692,26820.00
2683,22748,26830.00
2684,22768,26840.00
2685,22776,26850.00
2686,22780,26860.00
2687,22616,26870.00
2688,22280,26880.00
2689,22032,26890.00
2690,21960,26900.00
2691,21936,26910.00
2692,21928,26920.00
2693,21940,26930.00
2694,21940,26940.00
2695,21956,26950.00
2696,21980,26960.00
2697,22044,26970.00
2698,22152,26980.00
2699,22236,26990.00
2700,22308,27000.00
2701,22364,27010.00
2702,22412,27020.00
2703,22464,27030.00
2704,22444,27040.00
2705,22208,27050.00
2706,21948,27060.00
2707,21884,27070.00
2708,21916,27080.00
2709,21936,27090.00
2710,21988,27100.00
2711,22016,27110.00
2712,21984,27120.00
2713,21944,27130.00
2714,21924,27140.00
2715,21948,27150.00
2716,21996,27160.00
2717,22028,27170.00
2718,22056,27180.00
2719,22108,27190.00
2720,22140,27200.00
2721,22176,27210.00
2722,22112,27220.00
2723,21804,27230.00
2724,21556,27240.00
2725,21544,27250.00
2726,21604,27260.00
2727,21680,27270.00
2728,21784,27280.00
2729,21868,27290.00
2730,21888,27300.00
2731,21880,27310.00
2732,21908,27320.00
2733,21984,27330.00
2734,22068,27340.00
2735,22160,27350.00
2736,22244,27360.00
2737,22312,27370.00
2738,22380,27380.00
2739,22444,27390.00
2740,22476,27400.00
2741,22284,27410.00
2742,21968,27420.00
2743,21804,27430.00
2744,21800,27440.00
2745,21832,27450.00
2746,21876,27460.00
2747,21924,27470.00
2748,21924,27480.00
2749,21900,27490.00
2750,21896,27500.00
2751,21948,27510.00
2752,22044,27520.00
2753,22128,27530.00
2754,22172,27540.00
2755,22180,27550.00
2756,22124,27560.00
2757,22076,27570.00
2758,22120,27580.00
2759,22148,27590.00
2760,21956,27600.00
2761,21768,27610.00
2762,21796,27620.00
2763,21864,27630.00
2764,21876,27640.00
2765,21904,27650.00
2766,21868,27660.00
2767,21812,27670.00
2768,21792,27680.00
2769,21820,27690.00
2770,21876,27700.00
2771,21976,27710.00
2772,22072,27720.00
2773,22148,27730.00
2774,22228,27740.00
2775,22292,27750.00
2776,22360,27760.00
2777,22308,27770.00
2778,21992,27780.00
2779,21720,27790.00
2780,21692,27800.00
2781,21772,27810.00
2782,21852,27820.00
2783,21948,27830.00
2784,21992,27840.00
2785,22004,27850.00
2786,22032,27860.00
2787,22048,27870.00
2788,22108,27880.00
2789,22188,27890.00
2790,22252,27900.00
2791,22320,27910.00
2792,22364,27920.00
2793,22400,27930.00
2794,22440,27940.00
2795,22288,27950.00
2796,21932,27960.00
2797,21724,27970.00
2798,21756,27980.00
2799,21856,27990.00
2800,21968,28000.00
2801,22056,28010.00
2802,22092,28020.00
2803,22112,28030.00
2804,22132,28040.00
2805,22160,28050.00
2806,22224,28060.00
2807,22284,28070.00
2808,22324,28080.00
2809,22388,28090.00
2810,22456,28100.00
2811,22536,28110.00
2812,22612,28120.00
2813,22492,28130.00
2814,22164,28140.00
2815,21952,28150.00
2816,21956,28160.00
2817,22056,28170.00
2818,22164,28180.00
2819,22256,28190.00
2820,22296,28200.00
2821,22300,28210.00
2822,22308,28220.00
2823,22320,28230.00
2824,22372,28240.00
2825,22452,28250.00
2826,22540,28260.00
2827,22612,28270.00
2828,22680,28280.00
2829,22744,28290.00
2830,22732,28300.00
2831,22504,28310.00
2832,22220,28320.00
2833,22108,28330.00
2834,22124,28340.00
2835,22160,28350.00
2836,22196,28360.00
2837,22192,28370.00
2838,22136,28380.00
2839,22064,28390.00
2840,22068,28400.00
2841,22148,28410.00
2842,22248,28420.00
2843,22348,28430.00
2844,22444,28440.00
2845,22536,28450.00
2846,22612,28460.00
2847,22652,28470.00
2848,22524,28480.00
2849,22208,28490.00
2850,21996,28500.00
2851,21980,28510.00
2852,22032,28520.00
2853,22084,28530.00
2854,22132,28540.00
2855,22140,28550.00
2856,22144,28560.00
2857,22172,28570.00
2858,22228,28580.00
2859,22296,28590.00
2860,22368,28600.00
2861,22432,28610.00
2862,22480,28620.00
2863,22528,28630.00
2864,22568,28640.00
2865,22452,28650.00
2866,22216,28660.00
2867,22100,28670.00
2868,22172,28680.00
2869,22300,28690.00
2870,22444,28700.00
2871,22536,28710.00
2872,22524,28720.00
2873,22460,28730.00
2874,22392,28740.00
2875,22344,28750.00
2876,22340,28760.00
2877,22388,28770.00
2878,22456,28780.00
2879,22540,28790.00
2880,22572,28800.00
2881,22388,28810.00
2882,22124,28820.00
2883,22028,28830.00
2884,22092,28840.00
2885,22220,28850.00
2886,22344,28860.00
2887,22412,28870.00
2888,22428,28880.00
2889,22448,28890.00
2890,22488,28900.00
2891,22552,28910.00
2892,22620,28920.00
2893,22668,28930.00
2894,22724,28940.00
2895,22756,28950.00
2896,22600,28960.00
2897,22268,28970.00
2898,22064,28980.00
2899,22056,28990.00
2900,22092,29000.00
2901,22176,29010.00
2902,22272,29020.00
2903,22320,29030.00
2904,22336,29040.00
2905,22384,29050.00
2906,22456,29060.00
2907,22552,29070.00
2908,22648,29080.00
2909,22736,29090.00
2910,22788,29100.00
2911,22696,29110.00
2912,22388,29120.00
2913,22104,29130.00
2914,22032,29140.00
2915,22068,29150.00
2916,22136,29160.00
2917,22220,29170.00
2918,22280,29180.00
2919,22280,29190.00
2920,22276,29200.00
2921,22320,29210.00
2922,22384,29220.00
2923,22436,29230.00
2924,22488,29240.00
2925,22548,29250.00
2926,22632,29260.00
2927,22692,29270.00
2928,22568,29280.00
2929,22364,29290.00
2930,22292,29300.00
2931,22352,29310.00
2932,22428,29320.00
2933,22504,29330.00
2934,22536,29340.00
2935,22476,29350.00
2936,22368,29360.00
2937,22300,29370.00
2938,22328,29380.00
2939,22404,29390.00
2940,22472,29400.00
2941,22500,29410.00
2942,22520,29420.00
2943,22536,29430.00
2944,22524,29440.00
2945,22304,29450.00
2946,22016,29460.00
2947,21928,29470.00
2948,21968,29480.00
2949,22012,29490.00
2950,22068,29500.00
2951,22092,29510.00
2952,22072,29520.00
2953,22036,29530.00
2954,22032,29540.00
2955,22068,29550.00
2956,22116,29560.00
2957,22188,29570.00
2958,22264,29580.00
2959,22316,29590.00
2960,22360,29600.00
2961,22408,29610.00
2962,22456,29620.00
2963,22312,29630.00
2964,21948,29640.00
2965,21740,29650.00
2966,21784,29660.00
2967,21840,29670.00
2968,21896,29680.00
2969,21992,29690.00
2970,22044,29700.00
2971,22068,29710.00
2972,22092,29720.00
2973,22116,29730.00
2974,22148,29740.00
2975,22188,29750.00
2976,22216,29760.00
2977,22232,29770.00
2978,22256,29780.00
2979,22288,29790.00
2980,22340,29800.00
2981,22416,29810.00
2982,22448,29820.00
2983,22240,29830.00
2984,21908,29840.00
2985,21800,29850.00
2986,21848,29860.00
2987,21916,29870.00
2988,21988,29880.00
2989,22052,29890.00
2990,22084,29900.00
2991,22096,29910.00
2992,22116,29920.00
2993,22140,29930.00
2994,22148,29940.00
2995,22168,29950.00
2996,22192,29960.00
2997,22232,29970.00
2998,22288,29980.00
2999,22324,29990.00
3000,22344,30000.00
3001,22356,30010.00
3002,22168,30020.00
3003,21828,30030.00
3004,21668,30040.00
3005,21724,30050.00
3006,21828,30060.00
3007,21940,30070.00
3008,22004,30080.00
3009,22004,30090.00
3010,22012,30100.00
3011,22032,30110.00
3012,22092,30120.00
3013,22188,30130.00
3014,22256,30140.00
3015,22304,30150.00
3016,22364,30160.00
3017,22404,30170.00
3018,22432,30180.00
3019,22476,30190.00
3020,22524,30200.00
3021,22396,30210.00
3022,22044,30220.00
3023,21808,30230.00
3024,21804,30240.00
3025,21864,30250.00
3026,21896,30260.00
3027,21940,30270.00
3028,21956,30280.00
3029,21940,30290.00
3030,21948,30300.00
3031,21980,30310.00
3032,22036,30320.00
3033,22124,30330.00
3034,22216,30340.00
3035,22308,30350.00
3036,22384,30360.00
3037,22436,30370.00
3038,22472,30380.00
3039,22480,30390.00
3040,22232,30400.00
3041,21888,30410.00
3042,21748,30420.00
3043,21764,30430.00
3044,21808,30440.00
3045,21840,30450.00
3046,21876,30460.00
3047,21896,30470.00
3048,21920,30480.00
3049,21968,30490.00
3050,22008,30500.00
3051,22064,30510.00
3052,22112,30520.00
3053,22136,30530.00
3054,22148,30540.00
3055,22164,30550.00
3056,22184,30560.00
3057,22196,30570.00
3058,22120,30580.00
3059,21752,30590.00
3060,21436,30600.00
3061,21384,30610.00
3062,21460,30620.00
3063,21524,30630.00
3064,21588,30640.00
3065,21636,30650.00
3066,21640,30660.00
3067,21664,30670.00
3068,21716,30680.00
3069,21760,30690.00
3070,21804,30700.00
3071,21844,30710.00
3072,21876,30720.00
3073,21900,30730.00
3074,21936,30740.00
3075,21980,30750.00
3076,21892,30760.00
3077,21584,30770.00
3078,21360,30780.00
3079,21364,30790.00
3080,21464,30800.00
3081,21564,30810.00
3082,21656,30820.00
3083,21712,30830.00
3084,21728,30840.00
3085,21756,30850.00
3086,21784,30860.00
3087,21840,30870.00
3088,21904,30880.00
3089,21964,30890.00
3090,22020,30900.00
3091,22084,30910.00
3092,22136,30920.00
3093,22156,30930.00
3094,21976,30940.00
3095,21680,30950.00
3096,21596,30960.00
3097,21668,30970.00
3098,21792,30980.00
3099,21936,30990.00
3100,22088,31000.00
3101,22184,31010.00
3102,22208,31020.00
3103,22184,31030.00
3104,22176,31040.00
3105,22216,31050.00
3106,22256,31060.00
3107,22284,31070.00
3108,22300,31080.00
3109,22324,31090.00
3110,22356,31100.00
3111,22204,31110.00
3112,21860,31120.00
3113,21652,31130.00
3114,21644,31140.00
3115,21716,31150.00
3116,21788,31160.00
3117,21860,31170.00
3118,21900,31180.00
3119,21900,31190.00
3120,21936,31200.00
3121,22016,31210.00
3122,22108,31220.00
3123,22200,31230.00
3124,22268,31240.00
3125,22312,31250.00
3126,22356,31260.00
3127,22360,31270.00
3128,22140,31280.00
3129,21760,31290.00
3130,21584,31300.00
3131,21588,31310.00
3132,21604,31320.00
3133,21628,31330.00
3134,21708,31340.00
3135,21784,31350.00
3136,21828,31360.00
3137,21876,31370.00
3138,21956,31380.00
3139,22024,31390.00
3140,22076,31400.00
3141,22160,31410.00
3142,22264,31420.00
3143,22368,31430.00
3144,22480,31440.00
3145,22492,31450.00
3146,22228,31460.00
3147,21920,31470.00
3148,21816,31480.00
3149,21804,31490.00
3150,21816,31500.00
3151,21844,31510.00
3152,21840,31520.00
3153,21844,31530.00
3154,21844,31540.00
3155,21868,31550.00
3156,21940,31560.00
3157,22028,31570.00
3158,22104,31580.00
3159,22156,31590.00
3160,22180,31600.00
3161,22232,31610.00
3162,22248,31620.00
3163,22036,31630.00
3164,21768,31640.00
3165,21724,31650.00
3166,21748,31660.00
3167,21784,31670.00
3168,21816,31680.00
3169,21840,31690.00
3170,21856,31700.00
3171,21872,31710.00
3172,21896,31720.00
3173,21960,31730.00
3174,22032,31740.00
3175,22104,31750.00
3176,22160,31760.00
3177,22192,31770.00
3178,22232,31780.00
3179,22280,31790.00
3180,22348,31800.00
3181,22372,31810.00
3182,22148,31820.00
3183,21832,31830.00
3184,21752,31840.00
3185,21788,31850.00
3186,21796,31860.00
3187,21816,31870.00
3188,21864,31880.00
3189,21864,31890.00
3190,21844,31900.00
3191,21864,31910.00
3192,21912,31920.00
3193,21980,31930.00
3194,22044,31940.00
3195,22088,31950.00
3196,22112,31960.00
3197,22140,31970.00
3198,22160,31980.00
3199,22188,31990.00
3200,22272,32000.00
3201,22356,32010.00
3202,22252,32020.00
3203,21832,32030.00
3204,21576,32040.00
3205,21592,32050.00
3206,21624,32060.00
3207,21628,32070.00
3208,21672,32080.00
3209,21756,32090.00
3210,21824,32100.00
3211,21872,32110.00
3212,21916,32120.00
3213,21988,32130.00
3214,22052,32140.00
3215,22092,32150.00
3216,22168,32160.00
3217,22256,32170.00
3218,22324,32180.00
3219,22372,32190.00
3220,22412,32200.00
3221,22480,32210.00
3222,22552,32220.00
3223,22544,32230.00
3224,22292,32240.00
3225,22020,32250.00
3226,21940,32260.00
3227,21980,32270.00
3228,22052,32280.00
3229,22124,32290.00
3230,22200,32300.00
3231,22252,32310.00
3232,22288,32320.00
3233,22316,32330.00
3234,22360,32340.00
3235,22424,32350.00
3236,22484,32360.00
3237,22536,32370.00
3238,22588,32380.00
3239,22632,32390.00
3240,22688,32400.00
3241,22760,32410.00
3242,22840,32420.00
3243,22896,32430.00
3244,22800,32440.00
3245,22556,32450.00
3246,22400,32460.00
3247,22440,32470.00
3248,22560,32480.00
3249,22672,32490.00
3250,22768,32500.00
3251,22820,32510.00
3252,22832,32520.00
3253,22836,32530.00
3254,22868,32540.00
3255,22904,32550.00
3256,22928,32560.00
3257,22960,32570.00
3258,22992,32580.00
3259,23032,32590.00
3260,23084,32600.00
3261,23132,32610.00
3262,23180,32620.00
3263,23100,32630.00
3264,22888,32640.00
3265,22748,32650.00
3266,22756,32660.00
3267,22800,32670.00
3268,22856,32680.00
3269,22908,32690.00
3270,22936,32700.00
3271,22940,32710.00
3272,22952,32720.00
3273,22984,32730.00
3274,23036,32740.00
3275,23096,32750.00
3276,23152,32760.00
3277,23216,32770.00
3278,23276,32780.00
3279,23332,32790.00
3280,23380,32800.00
3281,23308,32810.00
3282,23068,32820.00
3283,22860,32830.00
3284,22816,32840.00
3285,22852,32850.00
3286,22884,32860.00
3287,22932,32870.00
3288,22980,32880.00
3289,23000,32890.00
3290,23024,32900.00
3291,23072,32910.00
3292,23132,32920.00
3293,23188,32930.00
3294,23244,32940.00
3295,23288,32950.00
3296,23320,32960.00
3297,23344,32970.00
3298,23356,32980.00
3299,23244,32990.00
3300,22952,33000.00
3301,22692,33010.00
3302,22572,33020.00
3303,22544,33030.00
3304,22552,33040.00
3305,22592,33050.00
3306,22628,33060.00
3307,22632,33070.00
3308,22620,33080.00
3309,22624,33090.00
3310,22664,33100.00
3311,22724,33110.00
3312,22792,33120.00
3313,22864,33130.00
3314,22924,33140.00
3315,22980,33150.00
3316,23036,33160.00
3317,22980,33170.00
3318,22704,33180.00
3319,22416,33190.00
3320,22368,33200.00
3321,22436,33210.00
3322,22468,33220.00
3323,22516,33230.00
3324,22556,33240.00
3325,22568,33250.00
3326,22556,33260.00
3327,22576,33270.00
3328,22644,33280.00
3329,22724,33290.00
3330,22812,33300.00
3331,22880,33310.00
3332,22960,33320.00
3333,23036,33330.00
3334,23096,33340.00
3335,23076,33350.00
3336,22840,33360.00
3337,22540,33370.00
3338,22416,33380.00
3339,22420,33390.00
3340,22452,33400.00
3341,22516,33410.00
3342,22560,33420.00
3343,22580,33430.00
3344,22584,33440.00
3345,22592,33450.00
3346,22620,33460.00
3347,22652,33470.00
3348,22688,33480.00
3349,22716,33490.00
3350,22752,33500.00
3351,22792,33510.00
3352,22852,33520.00
3353,22860,33530.00
3354,22672,33540.00
3355,22456,33550.00
3356,22436,33560.00
3357,22540,33570.00
3358,22652,33580.00
3359,22760,33590.00
3360,22852,33600.00
3361,22916,33610.00
3362,22952,33620.00
3363,22980,33630.00
3364,23024,33640.00
3365,23076,33650.00
3366,23132,33660.00
3367,23196,33670.00
3368,23240,33680.00
3369,23256,33690.00
3370,23256,33700.00
3371,23156,33710.00
3372,22848,33720.00
3373,22524,33730.00
3374,22436,33740.00
3375,22516,33750.00
3376,22628,33760.00
3377,22732,33770.00
3378,22780,33780.00
3379,22784,33790.00
3380,22788,33800.00
3381,22828,33810.00
3382,22908,33820.00
3383,22988,33830.00
3384,23064,33840.00
3385,23152,33850.00
3386,23236,33860.00
3387,23292,33870.00
3388,23184,33880.00
3389,22876,33890.00
3390,22656,33900.00
3391,22620,33910.00
3392,22628,33920.00
3393,22648,33930.00
3394,22696,33940.00
3395,22708,33950.00
3396,22692,33960.00
3397,22676,33970.00
3398,22692,33980.00
3399,22752,33990.00
3400,22828,34000.00
3401,22892,34010.00
3402,22956,34020.00
3403,23000,34030.00
3404,22956,34040.00
3405,22668,34050.00
3406,22340,34060.00
3407,22256,34070.00
3408,22316,34080.00
3409,22380,34090.00
3410,22440,34100.00
3411,22484,34110.00
3412,22504,34120.00
3413,22532,34130.00
3414,22580,34140.00
3415,22648,34150.00
3416,22740,34160.00
3417,22820,34170.00
3418,22880,34180.00
3419,22924,34190.00
3420,22960,34200.00
3421,22992,34210.00
3422,22936,34220.00
3423,22628,34230.00
3424,22296,34240.00
3425,22232,34250.00
3426,22288,34260.00
3427,22308,34270.00
3428,22356,34280.00
3429,22408,34290.00
3430,22428,34300.00
3431,22440,34310.00
3432,22476,34320.00
3433,22536,34330.00
3434,22604,34340.00
3435,22684,34350.00
3436,22736,34360.00
3437,22748,34370.00
3438,22740,34380.00
3439,22736,34390.00
3440,22708,34400.00
3441,22476,34410.00
3442,22180,34420.00
3443,22104,34430.00
3444,22168,34440.00
3445,22236,34450.00
3446,22340,34460.00
3447,22448,34470.00
3448,22508,34480.00
3449,22548,34490.00
3450,22608,34500.00
3451,22684,34510.00
3452,22772,34520.00
3453,22828,34530.00
3454,22844,34540.00
3455,22860,34550.00
3456,22900,34560.00
3457,22968,34570.00
3458,22992,34580.00
3459,22784,34590.00
3460,22404,34600.00
3461,22200,34610.00
3462,22240,34620.00
3463,22336,34630.00
3464,22432,34640.00
3465,22504,34650.00
3466,22512,34660.00
3467,22516,34670.00
3468,22572,34680.00
3469,22652,34690.00
3470,22744,34700.00
3471,22856,34710.00
3472,22960,34720.00
3473,23044,34730.00
3474,23124,34740.00
3475,23184,34750.00
3476,23064,34760.00
3477,22720,34770.00
3478,22460,34780.00
3479,22436,34790.00
3480,22500,34800.00
3481,22572,34810.00
3482,22664,34820.00
3483,22736,34830.00
3484,22768,34840.00
3485,22784,34850.00
3486,22824,34860.00
3487,22888,34870.00
3488,22944,34880.00
3489,22996,34890.00
3490,23044,34900.00
3491,23092,34910.00
3492,23120,34920.00
3493,22964,34930.00
3494,22592,34940.00
3495,22348,34950.00
3496,22324,34960.00
3497,22400,34970.00
3498,22516,34980.00
3499,22644,34990.00
3500,22724,35000.00
3501,22764,35010.00
3502,22788,35020.00
3503,22828,35030.00
3504,22908,35040.00
3505,22980,35050.00
3506,23044,35060.00
3507,23076,35070.00
3508,23088,35080.00
3509,23088,35090.00
3510,23052,35100.00
3511,22840,35110.00
3512,22520,35120.00
3513,22376,35130.00
3514,22444,35140.00
3515,22568,35150.00
3516,22692,35160.00
3517,22760,35170.00
3518,22748,35180.00
3519,22748,35190.00
3520,22812,35200.00
3521,22908,35210.00
3522,22988,35220.00
3523,23032,35230.00
3524,23076,35240.00
3525,23116,35250.00
3526,23152,35260.00
3527,23172,35270.00
3528,23008,35280.00
3529,22624,35290.00
3530,22364,35300.00
3531,22348,35310.00
3532,22408,35320.00
3533,22464,35330.00
3534,22552,35340.00
3535,22604,35350.00
3536,22624,35360.00
3537,22660,35370.00
3538,22696,35380.00
3539,22756,35390.00
3540,22828,35400.00
3541,22872,35410.00
3542,22908,35420.00
3543,22948,35430.00
3544,22984,35440.00
3545,22912,35450.00
3546,22600,35460.00
3547,22328,35470.00
3548,22312,35480.00
3549,22384,35490.00
3550,22420,35500.00
3551,22452,35510.00
3552,22500,35520.00
3553,22544,35530.00
3554,22584,35540.00
3555,22644,35550.00
3556,22720,35560.00
3557,22800,35570.00
3558,22876,35580.00
3559,22952,35590.00
3560,23016,35600.00
3561,23056,35610.00
3562,23108,35620.00
3563,23108,35630.00
3564,22824,35640.00
3565,22460,35650.00
3566,22348,35660.00
3567,22400,35670.00
3568,22468,35680.00
3569,22548,35690.00
3570,22616,35700.00
3571,22628,35710.00
3572,22620,35720.00
3573,22656,35730.00
3574,22732,35740.00
3575,22808,35750.00
3576,22892,35760.00
3577,22964,35770.00
3578,23012,35780.00
3579,23068,35790.00
3580,23120,35800.00
3581,23176,35810.00
3582,23216,35820.00
3583,23036,35830.00
3584,22700,35840.00
3585,22524,35850.00
3586,22544,35860.00
3587,22604,35870.00
3588,22700,35880.00
3589,22776,35890.00
3590,22788,35900.00
3591,22780,35910.00
3592,22788,35920.00
3593,22816,35930.00
3594,22856,35940.00
3595,22896,35950.00
3596,22940,35960.00
3597,22968,35970.00
3598,22996,35980.00
3599,23048,35990.00
3600,23104,36000.00
3601,23132,36010.00
3602,22988,36020.00
3603,22696,36030.00
3604,22504,36040.00
3605,22508,36050.00
3606,22580,36060.00
3607,22668,36070.00
3608,22744,36080.00
3609,22776,36090.00
3610,22808,36100.00
3611,22844,36110.00
3612,22908,36120.00
3613,23000,36130.00
3614,23092,36140.00
3615,23172,36150.00
3616,23252,36160.00
3617,23336,36170.00
3618,23408,36180.00
3619,23468,36190.00
3620,23440,36200.00
3621,23276,36210.00
3622,23116,36220.00
3623,23072,36230.00
3624,23100,36240.00
3625,23172,36250.00
3626,23244,36260.00
3627,23284,36270.00
3628,23312,36280.00
3629,23364,36290.00
3630,23428,36300.00
3631,23500,36310.00
3632,23580,36320.00
3633,23648,36330.00
3634,23700,36340.00
3635,23744,36350.00
3636,23776,36360.00
3637,23764,36370.00
3638,23620,36380.00
3639,23448,36390.00
3640,23376,36400.00
3641,23388,36410.00
3642,23428,36420.00
3643,23480,36430.00
3644,23512,36440.00
3645,23532,36450.00
3646,23560,36460.00
3647,23592,36470.00
3648,23636,36480.00
3649,23688,36490.00
3650,23736,36500.00
3651,23788,36510.00
3652,23840,36520.00
3653,23860,36530.00
3654,23772,36540.00
3655,23608,36550.00
3656,23512,36560.00
3657,23504,36570.00
3658,23536,36580.00
3659,23576,36590.00
3660,23608,36600.00
3661,23616,36610.00
3662,23624,36620.00
3663,23644,36630.00
3664,23672,36640.00
3665,23712,36650.00
3666,23760,36660.00
3667,23804,36670.00
3668,23840,36680.00
3669,23780,36690.00
3670,23624,36700.00
3671,23484,36710.00
3672,23432,36720.00
3673,23436,36730.00
3674,23464,36740.00
3675,23512,36750.00
3676,23548,36760.00
3677,23568,36770.00
3678,23588,36780.00
3679,23620,36790.00
3680,23648,36800.00
3681,23684,36810.00
3682,23712,36820.00
3683,23728,36830.00
3684,23640,36840.00
3685,23420,36850.00
3686,23200,36860.00
3687,23060,36870.00
3688,23020,36880.00
3689,23064,36890.00
3690,23156,36900.00
3691,23248,36910.00
3692,23328,36920.00
3693,23392,36930.00
3694,23460,36940.00
3695,23524,36950.00
3696,23588,36960.00
3697,23652,36970.00
3698,23712,36980.00
3699,23748,36990.00
3700,23660,37000.00
3701,23432,37010.00
3702,23208,37020.00
3703,23096,37030.00
3704,23060,37040.00
3705,23072,37050.00
3706,23112,37060.00
3707,23140,37070.00
3708,23152,37080.00
3709,23168,37090.00
3710,23204,37100.00
3711,23256,37110.00
3712,23312,37120.00
3713,23372,37130.00
3714,23416,37140.00
3715,23464,37150.00
3716,23504,37160.00
3717,23540,37170.00
3718,23572,37180.00
3719,23612,37190.00
3720,23644,37200.00
3721,23560,37210.00
3722,23288,37220.00
3723,23024,37230.00
3724,22916,37240.00
3725,22892,37250.00
3726,22900,37260.00
3727,22964,37270.00
3728,23044,37280.00
3729,23104,37290.00
3730,23168,37300.00
3731,23268,37310.00
3732,23380,37320.00
3733,23484,37330.00
3734,23564,37340.00
3735,23620,37350.00
3736,23672,37360.00
3737,23704,37370.00
3738,23736,37380.00
3739,23780,37390.00
3740,23812,37400.00
3741,23852,37410.00
3742,23892,37420.00
3743,23916,37430.00
3744,23792,37440.00
3745,23504,37450.00
3746,23296,37460.00
3747,23252,37470.00
3748,23260,37480.00
3749,23280,37490.00
3750,23332,37500.00
3751,23368,37510.00
3752,23376,37520.00
3753,23380,37530.00
3754,23404,37540.00
3755,23444,37550.00
3756,23500,37560.00
3757,23560,37570.00
3758,23612,37580.00
3759,23660,37590.00
3760,23696,37600.00
3761,23732,37610.00
3762,23768,37620.00
3763,23804,37630.00
3764,23840,37640.00
3765,23880,37650.00
3766,23892,37660.00
3767,23708,37670.00
3768,23384,37680.00
3769,23172,37690.00
3770,23120,37700.00
3771,23120,37710.00
3772,23140,37720.00
3773,23188,37730.00
3774,23228,37740.00
3775,23244,37750.00
3776,23252,37760.00
3777,23284,37770.00
3778,23336,37780.00
3779,23404,37790.00
3780,23464,37800.00
3781,23524,37810.00
3782,23556,37820.00
3783,23592,37830.00
3784,23624,37840.00
3785,23648,37850.00
3786,23684,37860.00
3787,23708,37870.00
3788,23656,37880.00
3789,23396,37890.00
3790,23056,37900.00
3791,22884,37910.00
3792,22900,37920.00
3793,22948,37930.00
3794,23008,37940.00
3795,23064,37950.00
3796,23068,37960.00
3797,23052,37970.00
3798,23068,37980.00
3799,23112,37990.00
3800,23176,38000.00
3801,23240,38010.00
3802,23304,38020.00
3803,23380,38030.00
3804,23452,38040.00
3805,23508,38050.00
3806,23564,38060.00
3807,23616,38070.00
3808,23628,38080.00
3809,23424,38090.00
3810,23096,38100.00
3811,22892,38110.00
3812,22864,38120.00
3813,22880,38130.00
3814,22920,38140.00
3815,22984,38150.00
3816,23020,38160.00
3817,23020,38170.00
3818,23008,38180.00
3819,23028,38190.00
3820,23084,38200.00
3821,23156,38210.00
3822,23220,38220.00
3823,23264,38230.00
3824,23304,38240.00
3825,23332,38250.00
3826,23372,38260.00
3827,23392,38270.00
3828,23216,38280.00
3829,22880,38290.00
3830,22680,38300.00
3831,22664,38310.00
3832,22720,38320.00
3833,22756,38330.00
3834,22816,38340.00
3835,22860,38350.00
3836,22876,38360.00
3837,22876,38370.00
3838,22900,38380.00
3839,22960,38390.00
3840,23028,38400.00
3841,23096,38410.00
3842,23164,38420.00
3843,23232,38430.00
3844,23296,38440.00
3845,23348,38450.00
3846,23392,38460.00
3847,23408,38470.00
3848,23220,38480.00
3849,22860,38490.00
3850,22628,38500.00
3851,22600,38510.00
3852,22656,38520.00
3853,22720,38530.00
3854,22800,38540.00
3855,22860,38550.00
3856,22908,38560.00
3857,22940,38570.00
3858,23004,38580.00
3859,23092,38590.00
3860,23172,38600.00
3861,23236,38610.00
3862,23296,38620.00
3863,23336,38630.00
3864,23372,38640.00
3865,23404,38650.00
3866,23440,38660.00
3867,23468,38670.00
3868,23316,38680.00
3869,22992,38690.00
3870,22748,38700.00
3871,22700,38710.00
3872,22756,38720.00
3873,22824,38730.00
3874,22916,38740.00
3875,22968,38750.00
3876,22980,38760.00
3877,22984,38770.00
3878,23012,38780.00
3879,23084,38790.00
3880,23180,38800.00
3881,23260,38810.00
3882,23316,38820.00
3883,23360,38830.00
3884,23392,38840.00
3885,23440,38850.00
3886,23496,38860.00
3887,23460,38870.00
3888,23220,38880.00
3889,22936,38890.00
3890,22796,38900.00
3891,22832,38910.00
3892,22912,38920.00
3893,22992,38930.00
3894,23048,38940.00
3895,23064,38950.00
3896,23056,38960.00
3897,23060,38970.00
3898,23088,38980.00
3899,23128,38990.00
3900,23192,39000.00
3901,23240,39010.00
3902,23292,39020.00
3903,23336,39030.00
3904,23384,39040.00
3905,23416,39050.00
3906,23256,39060.00
3907,22916,39070.00
3908,22696,39080.00
3909,22672,39090.00
3910,22728,39100.00
3911,22808,39110.00
3912,22884,39120.00
3913,22928,39130.00
3914,22936,39140.00
3915,22936,39150.00
3916,22972,39160.00
3917,23040,39170.00
3918,23108,39180.00
3919,23172,39190.00
3920,23224,39200.00
3921,23280,39210.00
3922,23336,39220.00
3923,23336,39230.00
3924,23092,39240.00
3925,22752,39250.00
3926,22616,39260.00
3927,22640,39270.00
3928,22708,39280.00
3929,22792,39290.00
3930,22860,39300.00
3931,22888,39310.00
3932,22876,39320.00
3933,22876,39330.00
3934,22916,39340.00
3935,22988,39350.00
3936,23048,39360.00
3937,23112,39370.00
3938,23184,39380.00
3939,23216,39390.00
3940,23048,39400.00
3941,22708,39410.00
3942,22512,39420.00
3943,22520,39430.00
3944,22596,39440.00
3945,22684,39450.00
3946,22768,39460.00
3947,22812,39470.00
3948,22812,39480.00
3949,22820,39490.00
3950,22856,39500.00
3951,22924,39510.00
3952,23004,39520.00
3953,23084,39530.00
3954,23164,39540.00
3955,23224,39550.00
3956,23176,39560.00
3957,22876,39570.00
3958,22572,39580.00
3959,22504,39590.00
3960,22572,39600.00
3961,22668,39610.00
3962,22768,39620.00
3963,22840,39630.00
3964,22860,39640.00
3965,22868,39650.00
3966,22892,39660.00
3967,22940,39670.00
3968,23012,39680.00
3969,23084,39690.00
3970,23148,39700.00
3971,23200,39710.00
3972,23252,39720.00
3973,23288,39730.00
3974,23184,39740.00
3975,22820,39750.00
3976,22500,39760.00
3977,22420,39770.00
3978,22472,39780.00
3979,22544,39790.00
3980,22628,39800.00
3981,22680,39810.00
3982,22692,39820.00
3983,22708,39830.00
3984,22760,39840.00
3985,22844,39850.00
3986,22932,39860.00
3987,23024,39870.00
3988,23104,39880.00
3989,23180,39890.00
3990,23244,39900.00
3991,23288,39910.00
3992,23168,39920.00
3993,22836,39930.00
3994,22580,39940.00
3995,22552,39950.00
3996,22624,39960.00
3997,22716,39970.00
3998,22836,39980.00
3999,22872,39990.00
4000,22952,40000.00
4001,23112,40010.00
4002,23248,40020.00
4003,23332,40030.00
4004,23400,40040.00
4005,23436,40050.00
4006,23432,40060.00
4007,23420,40070.00
4008,23412,40080.00
4009,23412,40090.00
4010,23332,40100.00
4011,23008,40110.00
4012,22664,40120.00
4013,22528,40130.00
4014,22560,40140.00
4015,22628,40150.00
4016,22708,40160.00
4017,22756,40170.00
4018,22768,40180.00
4019,22776,40190.00
4020,22800,40200.00
4021,22848,40210.00
4022,22912,40220.00
4023,22984,40230.00
4024,23048,40240.00
4025,23100,40250.00
4026,23144,40260.00
4027,23196,40270.00
4028,23220,40280.00
4029,23032,40290.00
4030,22676,40300.00
4031,22456,40310.00
4032,22436,40320.00
4033,22496,40330.00
4034,22576,40340.00
4035,22652,40350.00
4036,22684,40360.00
4037,22668,40370.00
4038,22632,40380.00
4039,22620,40390.00
4040,22660,40400.00
4041,22724,40410.00
4042,22768,40420.00
4043,22816,40430.00
4044,22864,40440.00
4045,22912,40450.00
4046,22832,40460.00
4047,22500,40470.00
4048,22200,40480.00
4049,22124,40490.00
4050,22176,40500.00
4051,22212,40510.00
4052,22268,40520.00
4053,22340,40530.00
4054,22360,40540.00
4055,22364,40550.00
4056,22392,40560.00
4057,22472,40570.00
4058,22576,40580.00
4059,22660,40590.00
4060,22708,40600.00
4061,22748,40610.00
4062,22780,40620.00
4063,22820,40630.00
4064,22840,40640.00
4065,22620,40650.00
4066,22268,40660.00
4067,22096,40670.00
4068,22108,40680.00
4069,22156,40690.00
4070,22196,40700.00
4071,22276,40710.00
4072,22356,40720.00
4073,22392,40730.00
4074,22408,40740.00
4075,22456,40750.00
4076,22520,40760.00
4077,22596,40770.00
4078,22664,40780.00
4079,22728,40790.00
4080,22776,40800.00
4081,22816,40810.00
4082,22852,40820.00
4083,22908,40830.00
4084,22916,40840.00
4085,22648,40850.00
4086,22256,40860.00
4087,22084,40870.00
4088,22124,40880.00
4089,22176,40890.00
4090,22204,40900.00
4091,22276,40910.00
4092,22320,40920.00
4093,22340,40930.00
4094,22376,40940.00
4095,22440,40950.00
4096,22528,40960.00
4097,22596,40970.00
4098,22632,40980.00
4099,22672,40990.00
4100,22732,41000.00
4101,22796,41010.00
4102,22848,41020.00
4103,22912,41030.00
4104,22980,41040.00
4105,22896,41050.00
4106,22576,41060.00
4107,22296,41070.00
4108,22252,41080.00
4109,22320,41090.00
4110,22408,41100.00
4111,22500,41110.00
4112,22568,41120.00
4113,22576,41130.00
4114,22560,41140.00
4115,22580,41150.00
4116,22640,41160.00
4117,22712,41170.00
4118,22756,41180.00
4119,22796,41190.00
4120,22844,41200.00
4121,22884,41210.00
4122,22928,41220.00
4123,22984,41230.00
4124,22988,41240.00
4125,22764,41250.00
4126,22444,41260.00
4127,22324,41270.00
4128,22392,41280.00
4129,22508,41290.00
4130,22612,41300.00
4131,22660,41310.00
4132,22664,41320.00
4133,22648,41330.00
4134,22668,41340.00
4135,22712,41350.00
4136,22784,41360.00
4137,22860,41370.00
4138,22920,41380.00
4139,22980,41390.00
4140,23028,41400.00
4141,23072,41410.00
4142,23112,41420.00
4143,23004,41430.00
4144,22660,41440.00
4145,22392,41450.00
4146,22360,41460.00
4147,22428,41470.00
4148,22500,41480.00
4149,22556,41490.00
4150,22580,41500.00
4151,22580,41510.00
4152,22568,41520.00
4153,22596,41530.00
4154,22660,41540.00
4155,22724,41550.00
4156,22788,41560.00
4157,22848,41570.00
4158,22896,41580.00
4159,22948,41590.00
4160,22980,41600.00
4161,22852,41610.00
4162,22488,41620.00
4163,22224,41630.00
4164,22204,41640.00
4165,22280,41650.00
4166,22360,41660.00
4167,22436,41670.00
4168,22472,41680.00
4169,22480,41690.00
4170,22480,41700.00
4171,22504,41710.00
4172,22568,41720.00
4173,22640,41730.00
4174,22716,41740.00
4175,22788,41750.00
4176,22844,41760.00
4177,22904,41770.00
4178,22952,41780.00
4179,22880,41790.00
4180,22568,41800.00
4181,22288,41810.00
4182,22272,41820.00
4183,22380,41830.00
4184,22496,41840.00
4185,22588,41850.00
4186,22636,41860.00
4187,22656,41870.00
4188,22668,41880.00
4189,22704,41890.00
4190,22772,41900.00
4191,22840,41910.00
4192,22896,41920.00
4193,22928,41930.00
4194,22944,41940.00
4195,22980,41950.00
4196,23000,41960.00
4197,22948,41970.00
4198,22648,41980.00
4199,22312,41990.00
4200,22208,42000.00
4201,22216,42010.00
4202,22164,42020.00
4203,22080,42030.00
4204,22064,42040.00
4205,22104,42050.00
4206,22152,42060.00
4207,22212,42070.00
4208,22332,42080.00
4209,22436,42090.00
4210,22532,42100.00
4211,22644,42110.00
4212,22740,42120.00
4213,22804,42130.00
4214,22848,42140.00
4215,22708,42150.00
4216,22376,42160.00
4217,22204,42170.00
4218,22244,42180.00
4219,22344,42190.00
4220,22448,42200.00
4221,22512,42210.00
4222,22512,42220.00
4223,22496,42230.00
4224,22504,42240.00
4225,22556,42250.00
4226,22612,42260.00
4227,22664,42270.00
4228,22688,42280.00
4229,22704,42290.00
4230,22732,42300.00
4231,22748,42310.00
4232,22560,42320.00
4233,22244,42330.00
4234,22116,42340.00
4235,22172,42350.00
4236,22284,42360.00
4237,22384,42370.00
4238,22432,42380.00
4239,22420,42390.00
4240,22416,42400.00
4241,22456,42410.00
4242,22516,42420.00
4243,22580,42430.00
4244,22628,42440.00
4245,22676,42450.00
4246,22728,42460.00
4247,22752,42470.00
4248,22568,42480.00
4249,22272,42490.00
4250,22172,42500.00
4251,22248,42510.00
4252,22364,42520.00
4253,22476,42530.00
4254,22552,42540.00
4255,22552,42550.00
4256,22560,42560.00
4257,22600,42570.00
4258,22656,42580.00
4259,22720,42590.00
4260,22768,42600.00
4261,22828,42610.00
4262,22876,42620.00
4263,22868,42630.00
4264,22696,42640.00
4265,22520,42650.00
4266,22540,42660.00
4267,22660,42670.00
4268,22796,42680.00
4269,22916,42690.00
4270,22976,42700.00
4271,23008,42710.00
4272,23036,42720.00
4273,23076,42730.00
4274,23136,42740.00
4275,23188,42750.00
4276,23232,42760.00
4277,23280,42770.00
4278,23320,42780.00
4279,23260,42790.00
4280,23068,42800.00
4281,22916,42810.00
4282,22908,42820.00
4283,22980,42830.00
4284,23092,42840.00
4285,23196,42850.00
4286,23252,42860.00
4287,23292,42870.00
4288,23336,42880.00
4289,23392,42890.00
4290,23452,42900.00
4291,23508,42910.00
4292,23560,42920.00
4293,23612,42930.00
4294,23604,42940.00
4295,23440,42950.00
4296,23260,42960.00
4297,23192,42970.00
4298,23200,42980.00
4299,23196,42990.00
4300,23232,43000.00
4301,23276,43010.00
4302,23296,43020.00
4303,23312,43030.00
4304,23340,43040.00
4305,23392,43050.00
4306,23440,43060.00
4307,23488,43070.00
4308,23536,43080.00
4309,23584,43090.00
4310,23588,43100.00
4311,23460,43110.00
4312,23300,43120.00
4313,23228,43130.00
4314,23232,43140.00
4315,23252,43150.00
4316,23304,43160.00
4317,23376,43170.00
4318,23432,43180.00
4319,23476,43190.00
4320,23528,43200.00
4321,23588,43210.00
4322,23660,43220.00
4323,23728,43230.00
4324,23788,43240.00
4325,23828,43250.00
4326,23856,43260.00
4327,23880,43270.00
4328,23904,43280.00
4329,23932,43290.00
4330,23964,43300.00
4331,23988,43310.00
4332,23920,43320.00
4333,23752,43330.00
4334,23648,43340.00
4335,23636,43350.00
4336,23652,43360.00
4337,23680,43370.00
4338,23712,43380.00
4339,23728,43390.00
4340,23736,43400.00
4341,23748,43410.00
4342,23780,43420.00
4343,23820,43430.00
4344,23872,43440.00
4345,23904,43450.00
4346,23932,43460.00
4347,23960,43470.00
4348,23992,43480.00
4349,24028,43490.00
4350,24052,43500.00
4351,24088,43510.00
4352,24100,43520.00
4353,23996,43530.00
4354,23820,43540.00
4355,23728,43550.00
4356,23704,43560.00
4357,23680,43570.00
4358,23692,43580.00
4359,23724,43590.00
4360,23748,43600.00
4361,23756,43610.00
4362,23764,43620.00
4363,23780,43630.00
4364,23816,43640.00
4365,23852,43650.00
4366,23884,43660.00
4367,23912,43670.00
4368,23952,43680.00
4369,23984,43690.00
4370,24016,43700.00
4371,24044,43710.00
4372,24076,43720.00
4373,24108,43730.00
4374,24092,43740.00
4375,23940,43750.00
4376,23760,43760.00
4377,23676,43770.00
4378,23644,43780.00
4379,23616,43790.00
4380,23616,43800.00
4381,23628,43810.00
4382,23636,43820.00
4383,23632,43830.00
4384,23648,43840.00
4385,23680,43850.00
4386,23724,43860.00
4387,23772,43870.00
4388,23808,43880.00
4389,23840,43890.00
4390,23872,43900.00
4391,23908,43910.00
4392,23936,43920.00
4393,23972,43930.00
4394,24008,43940.00
4395,24040,43950.00
4396,24024,43960.00
4397,23888,43970.00
4398,23668,43980.00
4399,23532,43990.00
4400,23512,44000.00
4401,23516,44010.00
4402,23544,44020.00
4403,23556,44030.00
4404,23568,44040.00
4405,23560,44050.00
4406,23564,44060.00
4407,23580,44070.00
4408,23604,44080.00
4409,23636,44090.00
4410,23676,44100.00
4411,23704,44110.00
4412,23724,44120.00
4413,23748,44130.00
4414,23772,44140.00
4415,23804,44150.00
4416,23844,44160.00
4417,23876,44170.00
4418,23836,44180.00
4419,23640,44190.00
4420,23424,44200.00
4421,23320,44210.00
4422,23312,44220.00
4423,23312,44230.00
4424,23316,44240.00
4425,23324,44250.00
4426,23316,44260.00
4427,23304,44270.00
4428,23320,44280.00
4429,23356,44290.00
4430,23404,44300.00
4431,23452,44310.00
4432,23512,44320.00
4433,23576,44330.00
4434,23648,44340.00
4435,23708,44350.00
4436,23756,44360.00
4437,23816,44370.00
4438,23872,44380.00
4439,23812,44390.00
4440,23576,44400.00
4441,23296,44410.00
4442,23128,44420.00
4443,23112,44430.00
4444,23144,44440.00
4445,23188,44450.00
4446,23208,44460.00
4447,23204,44470.00
4448,23200,44480.00
4449,23212,44490.00
4450,23228,44500.00
4451,23268,44510.00
4452,23328,44520.00
4453,23372,44530.00
4454,23416,44540.00
4455,23460,44550.00
4456,23500,44560.00
4457,23508,44570.00
4458,23332,44580.00
4459,23060,44590.00
4460,22928,44600.00
4461,22940,44610.00
4462,22980,44620.00
4463,23024,44630.00
4464,23064,44640.00
4465,23084,44650.00
4466,23084,44660.00
4467,23100,44670.00
4468,23144,44680.00
4469,23200,44690.00
4470,23236,44700.00
4471,23268,44710.00
4472,23316,44720.00
4473,23380,44730.00
4474,23412,44740.00
4475,23276,44750.00
4476,23024,44760.00
4477,22904,44770.00
4478,22948,44780.00
4479,23024,44790.00
4480,23104,44800.00
4481,23176,44810.00
4482,23216,44820.00
4483,23224,44830.00
4484,23236,44840.00
4485,23284,44850.00
4486,23344,44860.00
4487,23396,44870.00
4488,23432,44880.00
4489,23464,44890.00
4490,23488,44900.00
4491,23480,44910.00
4492,23292,44920.00
4493,23012,44930.00
4494,22872,44940.00
4495,22900,44950.00
4496,22972,44960.00
4497,23052,44970.00
4498,23100,44980.00
4499,23096,44990.00
4500,23076,45000.00
4501,23104,45010.00
4502,23152,45020.00
4503,23220,45030.00
4504,23284,45040.00
4505,23344,45050.00
4506,23396,45060.00
4507,23432,45070.00
4508,23316,45080.00
4509,23000,45090.00
4510,22768,45100.00
4511,22744,45110.00
4512,22796,45120.00
4513,22836,45130.00
4514,22892,45140.00
4515,22940,45150.00
4516,22960,45160.00
4517,22972,45170.00
4518,23008,45180.00
4519,23076,45190.00
4520,23148,45200.00
4521,23204,45210.00
4522,23256,45220.00
4523,23308,45230.00
4524,23356,45240.00
4525,23292,45250.00
4526,23028,45260.00
4527,22808,45270.00
4528,22780,45280.00
4529,22816,45290.00
4530,22848,45300.00
4531,22912,45310.00
4532,22972,45320.00
4533,22984,45330.00
4534,22988,45340.00
4535,23008,45350.00
4536,23060,45360.00
4537,23124,45370.00
4538,23188,45380.00
4539,23248,45390.00
4540,23312,45400.00
4541,23376,45410.00
4542,23460,45420.00
4543,23548,45430.00
4544,23600,45440.00
4545,23440,45450.00
4546,23128,45460.00
4547,22944,45470.00
4548,22932,45480.00
4549,22964,45490.00
4550,23028,45500.00
4551,23084,45510.00
4552,23112,45520.00
4553,23124,45530.00
4554,23144,45540.00
4555,23200,45550.00
4556,23276,45560.00
4557,23352,45570.00
4558,23436,45580.00
4559,23516,45590.00
4560,23552,45600.00
4561,23576,45610.00
4562,23596,45620.00
4563,23608,45630.00
4564,23472,45640.00
4565,23172,45650.00
4566,22968,45660.00
4567,22936,45670.00
4568,22960,45680.00
4569,22984,45690.00
4570,23044,45700.00
4571,23092,45710.00
4572,23128,45720.00
4573,23168,45730.00
4574,23212,45740.00
4575,23276,45750.00
4576,23344,45760.00
4577,23412,45770.00
4578,23472,45780.00
4579,23536,45790.00
4580,23584,45800.00
4581,23624,45810.00
4582,23668,45820.00
4583,23712,45830.00
4584,23700,45840.00
4585,23472,45850.00
4586,23180,45860.00
4587,23076,45870.00
4588,23116,45880.00
4589,23176,45890.00
4590,23228,45900.00
4591,23268,45910.00
4592,23272,45920.00
4593,23272,45930.00
4594,23288,45940.00
4595,23328,45950.00
4596,23392,45960.00
4597,23440,45970.00
4598,23480,45980.00
4599,23512,45990.00
4600,23528,46000.00
4601,23556,46010.00
4602,23576,46020.00
4603,23604,46030.00
4604,23612,46040.00
4605,23440,46050.00
4606,23124,46060.00
4607,22948,46070.00
4608,22948,46080.00
4609,22996,46090.00
4610,23032,46100.00
4611,23072,46110.00
4612,23096,46120.00
4613,23096,46130.00
4614,23096,46140.00
4615,23136,46150.00
4616,23196,46160.00
4617,23260,46170.00
4618,23312,46180.00
4619,23360,46190.00
4620,23400,46200.00
4621,23440,46210.00
4622,23468,46220.00
4623,23512,46230.00
4624,23548,46240.00
4625,23496,46250.00
4626,23216,46260.00
4627,22920,46270.00
4628,22832,46280.00
4629,22868,46290.00
4630,22908,46300.00
4631,22964,46310.00
4632,23016,46320.00
4633,23032,46330.00
4634,23028,46340.00
4635,23060,46350.00
4636,23124,46360.00
4637,23188,46370.00
4638,23248,46380.00
4639,23304,46390.00
4640,23352,46400.00
4641,23396,46410.00
4642,23440,46420.00
4643,23468,46430.00
4644,23500,46440.00
4645,23496,46450.00
4646,23280,46460.00
4647,22964,46470.00
4648,22824,46480.00
4649,22872,46490.00
4650,22940,46500.00
4651,23004,46510.00
4652,23056,46520.00
4653,23076,46530.00
4654,23072,46540.00
4655,23104,46550.00
4656,23172,46560.00
4657,23252,46570.00
4658,23320,46580.00
4659,23388,46590.00
4660,23460,46600.00
4661,23512,46610.00
4662,23556,46620.00
4663,23620,46630.00
4664,23656,46640.00
4665,23520,46650.00
4666,23228,46660.00
4667,23032,46670.00
4668,23024,46680.00
4669,23108,46690.00
4670,23192,46700.00
4671,23276,46710.00
4672,23324,46720.00
4673,23324,46730.00
4674,23340,46740.00
4675,23376,46750.00
4676,23436,46760.00
4677,23500,46770.00
4678,23556,46780.00
4679,23600,46790.00
4680,23648,46800.00
4681,23688,46810.00
4682,23576,46820.00
4683,23296,46830.00
4684,23092,46840.00
4685,23076,46850.00
4686,23144,46860.00
4687,23228,46870.00
4688,23308,46880.00
4689,23356,46890.00
4690,23352,46900.00
4691,23348,46910.00
4692,23380,46920.00
4693,23432,46930.00
4694,23496,46940.00
4695,23560,46950.00
4696,23628,46960.00
4697,23652,46970.00
4698,23460,46980.00
4699,23172,46990.00
4700,23036,47000.00
4701,23064,47010.00
4702,23132,47020.00
4703,23220,47030.00
4704,23304,47040.00
4705,23348,47050.00
4706,23360,47060.00
4707,23388,47070.00
4708,23432,47080.00
4709,23492,47090.00
4710,23556,47100.00
4711,23620,47110.00
4712,23672,47120.00
4713,23560,47130.00
4714,23272,47140.00
4715,23076,47150.00
4716,23068,47160.00
4717,23136,47170.00
4718,23220,47180.00
4719,23312,47190.00
4720,23372,47200.00
4721,23392,47210.00
4722,23404,47220.00
4723,23448,47230.00
4724,23508,47240.00
4725,23572,47250.00
4726,23624,47260.00
4727,23680,47270.00
4728,23680,47280.00
4729,23480,47290.00
4730,23216,47300.00
4731,23096,47310.00
4732,23112,47320.00
4733,23176,47330.00
4734,23272,47340.00
4735,23372,47350.00
4736,23436,47360.00
4737,23476,47370.00
4738,23512,47380.00
4739,23564,47390.00
4740,23636,47400.00
4741,23700,47410.00
4742,23756,47420.00
4743,23808,47430.00
4744,23852,47440.00
4745,23780,47450.00
4746,23524,47460.00
4747,23292,47470.00
4748,23216,47480.00
4749,23236,47490.00
4750,23288,47500.00
4751,23352,47510.00
4752,23408,47520.00
4753,23436,47530.00
4754,23448,47540.00
4755,23484,47550.00
4756,23540,47560.00
4757,23612,47570.00
4758,23680,47580.00
4759,23732,47590.00
4760,23780,47600.00
4761,23832,47610.00
4762,23828,47620.00
4763,23616,47630.00
4764,23348,47640.00
4765,23216,47650.00
4766,23208,47660.00
4767,23244,47670.00
4768,23308,47680.00
4769,23380,47690.00
4770,23424,47700.00
4771,23444,47710.00
4772,23476,47720.00
4773,23532,47730.00
4774,23596,47740.00
4775,23664,47750.00
4776,23728,47760.00
4777,23788,47770.00
4778,23840,47780.00
4779,23888,47790.00
4780,23908,47800.00
4781,23748,47810.00
4782,23468,47820.00
4783,23284,47830.00
4784,23260,47840.00
4785,23296,47850.00
4786,23352,47860.00
4787,23416,47870.00
4788,23456,47880.00
4789,23464,47890.00
4790,23480,47900.00
4791,23524,47910.00
4792,23588,47920.00
4793,23648,47930.00
4794,23720,47940.00
4795,23776,47950.00
4796,23828,47960.00
4797,23880,47970.00
4798,23940,47980.00
4799,23968,47990.00
4800,23820,48000.00
4801,23532,48010.00
4802,23336,48020.00
4803,23316,48030.00
4804,23364,48040.00
4805,23436,48050.00
4806,23508,48060.00
4807,23556,48070.00
4808,23564,48080.00
4809,23576,48090.00
4810,23616,48100.00
4811,23676,48110.00
4812,23740,48120.00
4813,23808,48130.00
4814,23876,48140.00
4815,23940,48150.00
4816,23988,48160.00
4817,24040,48170.00
4818,24076,48180.00
4819,23924,48190.00
4820,23616,48200.00
4821,23408,48210.00
4822,23384,48220.00
4823,23428,48230.00
4824,23500,48240.00
4825,23576,48250.00
4826,23608,48260.00
4827,23608,48270.00
4828,23600,48280.00
4829,23632,48290.00
4830,23688,48300.00
4831,23748,48310.00
4832,23808,48320.00
4833,23864,48330.00
4834,23920,48340.00
4835,23964,48350.00
4836,24004,48360.00
4837,23924,48370.00
4838,23636,48380.00
4839,23364,48390.00
4840,23260,48400.00
4841,23272,48410.00
4842,23340,48420.00
4843,23416,48430.00
4844,23460,48440.00
4845,23472,48450.00
4846,23476,48460.00
4847,23504,48470.00
4848,23556,48480.00
4849,23624,48490.00
4850,23688,48500.00
4851,23760,48510.00
4852,23812,48520.00
4853,23864,48530.00
4854,23916,48540.00
4855,23876,48550.00
4856,23612,48560.00
4857,23312,48570.00
4858,23172,48580.00
4859,23176,48590.00
4860,23240,48600.00
4861,23328,48610.00
4862,23388,48620.00
4863,23412,48630.00
4864,23416,48640.00
4865,23436,48650.00
4866,23484,48660.00
4867,23548,48670.00
4868,23616,48680.00
4869,23676,48690.00
4870,23728,48700.00
4871,23780,48710.00
4872,23796,48720.00
4873,23612,48730.00
4874,23304,48740.00
4875,23096,48750.00
4876,23060,48760.00
4877,23108,48770.00
4878,23192,48780.00
4879,23276,48790.00
4880,23316,48800.00
4881,23328,48810.00
4882,23340,48820.00
4883,23384,48830.00
4884,23440,48840.00
4885,23500,48850.00
4886,23564,48860.00
4887,23624,48870.00
4888,23692,48880.00
4889,23688,48890.00
4890,23452,48900.00
4891,23148,48910.00
4892,22988,48920.00
4893,22984,48930.00
4894,23048,48940.00
4895,23136,48950.00
4896,23208,48960.00
4897,23232,48970.00
4898,23244,48980.00
4899,23268,48990.00
4900,23320,49000.00
4901,23384,49010.00
4902,23452,49020.00
4903,23520,49030.00
4904,23584,49040.00
4905,23632,49050.00
4906,23512,49060.00
4907,23208,49070.00
4908,22972,49080.00
4909,22920,49090.00
4910,22968,49100.00
4911,23048,49110.00
4912,23140,49120.00
4913,23200,49130.00
4914,23220,49140.00
4915,23236,49150.00
4916,23280,49160.00
4917,23340,49170.00
4918,23408,49180.00
4919,23472,49190.00
4920,23532,49200.00
4921,23584,49210.00
4922,23560,49220.00
4923,23324,49230.00
4924,23032,49240.00
4925,22900,49250.00
4926,22908,49260.00
4927,22972,49270.00
4928,23064,49280.00
4929,23132,49290.00
4930,23160,49300.00
4931,23172,49310.00
4932,23204,49320.00
4933,23260,49330.00
4934,23328,49340.00
4935,23392,49350.00
4936,23456,49360.00
4937,23512,49370.00
4938,23564,49380.00
4939,23536,49390.00
4940,23288,49400.00
4941,22984,49410.00
4942,22848,49420.00
4943,22864,49430.00
4944,22924,49440.00
4945,23008,49450.00
4946,23076,49460.00
4947,23104,49470.00
4948,23116,49480.00
4949,23144,49490.00
4950,23200,49500.00
4951,23272,49510.00
4952,23340,49520.00
4953,23400,49530.00
4954,23448,49540.00
4955,23492,49550.00
4956,23472,49560.00
4957,23228,49570.00
4958,22928,49580.00
4959,22792,49590.00
4960,22812,49600.00
4961,22864,49610.00
4962,22948,49620.00
4963,23008,49630.00
4964,23036,49640.00
4965,23044,49650.00
4966,23060,49660.00
4967,23100,49670.00
4968,23184,49680.00
4969,23288,49690.00
4970,23376,49700.00
4971,23444,49710.00
4972,23496,49720.00
4973,23544,49730.00
4974,23572,49740.00
4975,23444,49750.00
4976,23132,49760.00
4977,22876,49770.00
4978,22808,49780.00
4979,22828,49790.00
4980,22888,49800.00
4981,22956,49810.00
4982,22988,49820.00
4983,22980,49830.00
4984,22988,49840.00
4985,23028,49850.00
4986,23092,49860.00
4987,23164,49870.00
4988,23228,49880.00
4989,23280,49890.00
4990,23324,49900.00
4991,23364,49910.00
4992,23356,49920.00
4993,23128,49930.00
4994,22836,49940.00
4995,22704,49950.00
4996,22728,49960.00
4997,22796,49970.00
4998,22884,49980.00
4999,22948,49990.00
5000,22968,50000.00
5001,22980,50010.00
5002,23004,50020.00
5003,23052,50030.00
5004,23116,50040.00
5005,23192,50050.00
5006,23252,50060.00
5007,23304,50070.00
5008,23360,50080.00
5009,23412,50090.00
5010,23364,50100.00
5011,23076,50110.00
5012,22772,50120.00
5013,22668,50130.00
5014,22692,50140.00
5015,22744,50150.00
5016,22820,50160.00
5017,22892,50170.00
5018,22920,50180.00
5019,22928,50190.00
5020,22944,50200.00
5021,22996,50210.00
5022,23068,50220.00
5023,23136,50230.00
5024,23200,50240.00
5025,23256,50250.00
5026,23308,50260.00
5027,23348,50270.00
5028,23384,50280.00
5029,23244,50290.00
5030,22900,50300.00
5031,22656,50310.00
5032,22624,50320.00
5033,22664,50330.00
5034,22724,50340.00
5035,22796,50350.00
5036,22856,50360.00
5037,22876,50370.00
5038,22892,50380.00
5039,22932,50390.00
5040,23000,50400.00
5041,23080,50410.00
5042,23164,50420.00
5043,23228,50430.00
5044,23284,50440.00
5045,23340,50450.00
5046,23380,50460.00
5047,23420,50470.00
5048,23468,50480.00
5049,23372,50490.00
5050,23032,50500.00
5051,22716,50510.00
5052,22632,50520.00
5053,22688,50530.00
5054,22752,50540.00
5055,22828,50550.00
5056,22884,50560.00
5057,22896,50570.00
5058,22908,50580.00
5059,22932,50590.00
5060,23004,50600.00
5061,23084,50610.00
5062,23156,50620.00
5063,23228,50630.00
5064,23288,50640.00
5065,23348,50650.00
5066,23392,50660.00
5067,23432,50670.00
5068,23472,50680.00
5069,23520,50690.00
5070,23404,50700.00
5071,23048,50710.00
5072,22772,50720.00
5073,22704,50730.00
5074,22760,50740.00
5075,22844,50750.00
5076,22936,50760.00
5077,22992,50770.00
5078,23000,50780.00
5079,23008,50790.00
5080,23048,50800.00
5081,23112,50810.00
5082,23188,50820.00
5083,23260,50830.00
5084,23320,50840.00
5085,23376,50850.00
5086,23428,50860.00
5087,23464,50870.00
5088,23504,50880.00
5089,23548,50890.00
5090,23592,50900.00
5091,23488,50910.00
5092,23156,50920.00
5093,22848,50930.00
5094,22756,50940.00
5095,22800,50950.00
5096,22884,50960.00
5097,22980,50970.00
5098,23036,50980.00
5099,23052,50990.00
5100,23060,51000.00
5101,23088,51010.00
5102,23144,51020.00
5103,23212,51030.00
5104,23284,51040.00
5105,23352,51050.00
5106,23412,51060.00
5107,23464,51070.00
5108,23508,51080.00
5109,23552,51090.00
5110,23600,51100.00
5111,23532,51110.00
5112,23228,51120.00
5113,22916,51130.00
5114,22792,51140.00
5115,22812,51150.00
5116,22880,51160.00
5117,22968,51170.00
5118,23036,51180.00
5119,23060,51190.00
5120,23060,51200.00
5121,23084,51210.00
5122,23140,51220.00
5123,23212,51230.00
5124,23292,51240.00
5125,23360,51250.00
5126,23424,51260.00
5127,23480,51270.00
5128,23524,51280.00
5129,23576,51290.00
5130,23580,51300.00
5131,23360,51310.00
5132,23024,51320.00
5133,22824,51330.00
5134,22816,51340.00
5135,22884,51350.00
5136,22968,51360.00
5137,23044,51370.00
5138,23088,51380.00
5139,23092,51390.00
5140,23100,51400.00
5141,23136,51410.00
5142,23200,51420.00
5143,23276,51430.00
5144,23344,51440.00
5145,23400,51450.00
5146,23444,51460.00
5147,23488,51470.00
5148,23532,51480.00
5149,23468,51490.00
5150,23176,51500.00
5151,22872,51510.00
5152,22772,51520.00
5153,22812,51530.00
5154,22904,51540.00
5155,23000,51550.00
5156,23028,51560.00
5157,23012,51570.00
5158,23000,51580.00
5159,23028,51590.00
5160,23088,51600.00
5161,23156,51610.00
5162,23208,51620.00
5163,23264,51630.00
5164,23312,51640.00
5165,23344,51650.00
5166,23204,51660.00
5167,22872,51670.00
5168,22628,51680.00
5169,22588,51690.00
5170,22632,51700.00
5171,22696,51710.00
5172,22772,51720.00
5173,22816,51730.00
5174,22828,51740.00
5175,22844,51750.00
5176,22876,51760.00
5177,22948,51770.00
5178,23008,51780.00
5179,23068,51790.00
5180,23124,51800.00
5181,23168,51810.00
5182,23040,51820.00
5183,22724,51830.00
5184,22496,51840.00
5185,22476,51850.00
5186,22524,51860.00
5187,22592,51870.00
5188,22676,51880.00
5189,22728,51890.00
5190,22744,51900.00
5191,22760,51910.00
5192,22792,51920.00
5193,22860,51930.00
5194,22920,51940.00
5195,22976,51950.00
5196,23024,51960.00
5197,23072,51970.00
5198,23084,51980.00
5199,22884,51990.00
5200,22564,52000.00
5201,22412,52010.00
5202,22424,52020.00
5203,22460,52030.00
5204,22516,52040.00
5205,22588,52050.00
5206,22628,52060.00
5207,22632,52070.00
5208,22648,52080.00
5209,22696,52090.00
5210,22768,52100.00
5211,22848,52110.00
5212,22908,52120.00
5213,22960,52130.00
5214,22996,52140.00
5215,23032,52150.00
5216,23060,52160.00
5217,23092,52170.00
5218,23064,52180.00
5219,22796,52190.00
5220,22464,52200.00
5221,22344,52210.00
5222,22368,52220.00
5223,22408,52230.00
5224,22488,52240.00
5225,22564,52250.00
5226,22600,52260.00
5227,22612,52270.00
5228,22652,52280.00
5229,22712,52290.00
5230,22784,52300.00
5231,22848,52310.00
5232,22896,52320.00
5233,22944,52330.00
5234,22988,52340.00
5235,23028,52350.00
5236,23060,52360.00
5237,23104,52370.00
5238,23156,52380.00
5239,23132,52390.00
5240,22860,52400.00
5241,22576,52410.00
5242,22500,52420.00
5243,22528,52430.00
5244,22580,52440.00
5245,22648,52450.00
5246,22684,52460.00
5247,22688,52470.00
5248,22692,52480.00
5249,22724,52490.00
5250,22768,52500.00
5251,22820,52510.00
5252,22872,52520.00
5253,22916,52530.00
5254,22952,52540.00
5255,22984,52550.00
5256,23016,52560.00
5257,23040,52570.00
5258,23076,52580.00
5259,23000,52590.00
5260,22656,52600.00
5261,22340,52610.00
5262,22272,52620.00
5263,22316,52630.00
5264,22368,52640.00
5265,22432,52650.00
5266,22468,52660.00
5267,22468,52670.00
5268,22468,52680.00
5269,22484,52690.00
5270,22544,52700.00
5271,22608,52710.00
5272,22668,52720.00
5273,22716,52730.00
5274,22748,52740.00
5275,22788,52750.00
5276,22828,52760.00
5277,22864,52770.00
5278,22920,52780.00
5279,22912,52790.00
5280,22644,52800.00
5281,22288,52810.00
5282,22172,52820.00
5283,22220,52830.00
5284,22292,52840.00
5285,22368,52850.00
5286,22420,52860.00
5287,22420,52870.00
5288,22424,52880.00
5289,22464,52890.00
5290,22528,52900.00
5291,22624,52910.00
5292,22704,52920.00
5293,22772,52930.00
5294,22844,52940.00
5295,22932,52950.00
5296,23016,52960.00
5297,23088,52970.00
5298,23136,52980.00
5299,23168,52990.00
5300,23028,53000.00
5301,22680,53010.00
5302,22448,53020.00
5303,22456,53030.00
5304,22540,53040.00
5305,22620,53050.00
5306,22676,53060.00
5307,22688,53070.00
5308,22676,53080.00
5309,22692,53090.00
5310,22736,53100.00
5311,22816,53110.00
5312,22888,53120.00
5313,22944,53130.00
5314,22988,53140.00
5315,23008,53150.00
5316,23036,53160.00
5317,23068,53170.00
5318,22928,53180.00
5319,22596,53190.00
5320,22392,53200.00
5321,22412,53210.00
5322,22500,53220.00
5323,22596,53230.00
5324,22680,53240.00
5325,22700,53250.00
5326,22688,53260.00
5327,22696,53270.00
5328,22740,53280.00
5329,22812,53290.00
5330,22880,53300.00
5331,22928,53310.00
5332,22972,53320.00
5333,23016,53330.00
5334,23048,53340.00
5335,22900,53350.00
5336,22560,53360.00
5337,22348,53370.00
5338,22368,53380.00
5339,22448,53390.00
5340,22536,53400.00
5341,22612,53410.00
5342,22644,53420.00
5343,22640,53430.00
5344,22656,53440.00
5345,22700,53450.00
5346,22764,53460.00
5347,22832,53470.00
5348,22888,53480.00
5349,22928,53490.00
5350,22984,53500.00
5351,23012,53510.00
5352,22836,53520.00
5353,22496,53530.00
5354,22340,53540.00
5355,22376,53550.00
5356,22448,53560.00
5357,22536,53570.00
5358,22604,53580.00
5359,22620,53590.00
5360,22616,53600.00
5361,22632,53610.00
5362,22676,53620.00
5363,22748,53630.00
5364,22812,53640.00
5365,22860,53650.00
5366,22896,53660.00
5367,22932,53670.00
5368,22956,53680.00
5369,22828,53690.00
5370,22512,53700.00
5371,22316,53710.00
5372,22352,53720.00
5373,22448,53730.00
5374,22536,53740.00
5375,22592,53750.00
5376,22592,53760.00
5377,22584,53770.00
5378,22604,53780.00
5379,22668,53790.00
5380,22744,53800.00
5381,22800,53810.00
5382,22860,53820.00
5383,22900,53830.00
5384,22932,53840.00
5385,22972,53850.00
5386,22904,53860.00
5387,22612,53870.00
5388,22372,53880.00
5389,22372,53890.00
5390,22464,53900.00
5391,22564,53910.00
5392,22652,53920.00
5393,22680,53930.00
5394,22680,53940.00
5395,22684,53950.00
5396,22728,53960.00
5397,22784,53970.00
5398,22840,53980.00
5399,22892,53990.00
5400,22932,54000.00
5401,22972,54010.00
5402,23000,54020.00
5403,22996,54030.00
5404,22768,54040.00
5405,22464,54050.00
5406,22392,54060.00
5407,22516,54070.00
5408,22660,54080.00
5409,22772,54090.00
5410,22832,54100.00
5411,22836,54110.00
5412,22832,54120.00
5413,22856,54130.00
5414,22916,54140.00
5415,22992,54150.00
5416,23064,54160.00
5417,23104,54170.00
5418,23116,54180.00
5419,23124,54190.00
5420,23112,54200.00
5421,22916,54210.00
5422,22624,54220.00
5423,22496,54230.00
5424,22560,54240.00
5425,22680,54250.00
5426,22792,54260.00
5427,22848,54270.00
5428,22840,54280.00
5429,22800,54290.00
5430,22816,54300.00
5431,22868,54310.00
5432,22940,54320.00
5433,23004,54330.00
5434,23052,54340.00
5435,23092,54350.00
5436,23088,54360.00
5437,22840,54370.00
5438,22504,54380.00
5439,22384,54390.00
5440,22436,54400.00
5441,22508,54410.00
5442,22584,54420.00
5443,22624,54430.00
5444,22628,54440.00
5445,22616,54450.00
5446,22632,54460.00
5447,22684,54470.00
5448,22764,54480.00
5449,22840,54490.00
5450,22896,54500.00
5451,22936,54510.00
5452,22840,54520.00
5453,22536,54530.00
5454,22332,54540.00
5455,22340,54550.00
5456,22420,54560.00
5457,22500,54570.00
5458,22580,54580.00
5459,22640,54590.00
5460,22664,54600.00
5461,22692,54610.00
5462,22744,54620.00
5463,22796,54630.00
5464,22836,54640.00
5465,22880,54650.00
5466,22928,54660.00
5467,22964,54670.00
5468,22968,54680.00
5469,22732,54690.00
5470,22420,54700.00
5471,22324,54710.00
5472,22380,54720.00
5473,22452,54730.00
5474,22520,54740.00
5475,22564,54750.00
5476,22584,54760.00
5477,22604,54770.00
5478,22644,54780.00
5479,22728,54790.00
5480,22808,54800.00
5481,22892,54810.00
5482,22964,54820.00
5483,23024,54830.00
5484,23072,54840.00
5485,23120,54850.00
5486,23068,54860.00
5487,22752,54870.00
5488,22456,54880.00
5489,22392,54890.00
5490,22452,54900.00
5491,22528,54910.00
5492,22580,54920.00
5493,22592,54930.00
5494,22568,54940.00
5495,22552,54950.00
5496,22576,54960.00
5497,22644,54970.00
5498,22708,54980.00
5499,22764,54990.00
5500,22796,55000.00
5501,22824,55010.00
5502,22848,55020.00
5503,22880,55030.00
5504,22908,55040.00
5505,22748,55050.00
5506,22416,55060.00
5507,22256,55070.00
5508,22308,55080.00
5509,22384,55090.00
5510,22472,55100.00
5511,22532,55110.00
5512,22540,55120.00
5513,22560,55130.00
5514,22624,55140.00
5515,22728,55150.00
5516,22836,55160.00
5517,22924,55170.00
5518,22984,55180.00
5519,23032,55190.00
5520,23072,55200.00
5521,23108,55210.00
5522,23152,55220.00
5523,23132,55230.00
5524,22872,55240.00
5525,22552,55250.00
5526,22460,55260.00
5527,22528,55270.00
5528,22628,55280.00
5529,22712,55290.00
5530,22736,55300.00
5531,22716,55310.00
5532,22684,55320.00
5533,22688,55330.00
5534,22736,55340.00
5535,22804,55350.00
5536,22876,55360.00
5537,22936,55370.00
5538,22980,55380.00
5539,23028,55390.00
5540,23020,55400.00
5541,22772,55410.00
5542,22468,55420.00
5543,22372,55430.00
5544,22424,55440.00
5545,22500,55450.00
5546,22580,55460.00
5547,22612,55470.00
5548,22620,55480.00
5549,22644,55490.00
5550,22708,55500.00
5551,22792,55510.00
5552,22876,55520.00
5553,22960,55530.00
5554,23028,55540.00
5555,23084,55550.00
5556,23140,55560.00
5557,23180,55570.00
5558,23012,55580.00
5559,22664,55590.00
5560,22460,55600.00
5561,22468,55610.00
5562,22544,55620.00
5563,22620,55630.00
5564,22680,55640.00
5565,22676,55650.00
5566,22656,55660.00
5567,22676,55670.00
5568,22744,55680.00
5569,22824,55690.00
5570,22888,55700.00
5571,22936,55710.00
5572,22988,55720.00
5573,23032,55730.00
5574,22932,55740.00
5575,22604,55750.00
5576,22352,55760.00
5577,22332,55770.00
5578,22396,55780.00
5579,22456,55790.00
5580,22524,55800.00
5581,22548,55810.00
5582,22548,55820.00
5583,22556,55830.00
5584,22600,55840.00
5585,22668,55850.00
5586,22744,55860.00
5587,22800,55870.00
5588,22852,55880.00
5589,22896,55890.00
5590,22944,55900.00
5591,22880,55910.00
5592,22560,55920.00
5593,22276,55930.00
5594,22236,55940.00
5595,22296,55950.00
5596,22344,55960.00
5597,22412,55970.00
5598,22464,55980.00
5599,22480,55990.00
5600,22472,56000.00
5601,22508,56010.00
5602,22592,56020.00
5603,22672,56030.00
5604,22736,56040.00
5605,22796,56050.00
5606,22840,56060.00
5607,22876,56070.00
5608,22920,56080.00
5609,22836,56090.00
5610,22520,56100.00
5611,22272,56110.00
5612,22264,56120.00
5613,22348,56130.00
5614,22408,56140.00
5615,22468,56150.00
5616,22496,56160.00
5617,22500,56170.00
5618,22516,56180.00
5619,22564,56190.00
5620,22628,56200.00
5621,22700,56210.00
5622,22760,56220.00
5623,22816,56230.00
5624,22856,56240.00
5625,22892,56250.00
5626,22924,56260.00
5627,22968,56270.00
5628,22948,56280.00
5629,22672,56290.00
5630,22360,56300.00
5631,22272,56310.00
5632,22328,56320.00
5633,22408,56330.00
5634,22488,56340.00
5635,22524,56350.00
5636,22520,56360.00
5637,22524,56370.00
5638,22556,56380.00
5639,22608,56390.00
5640,22668,56400.00
5641,22728,56410.00
5642,22776,56420.00
5643,22808,56430.00
5644,22836,56440.00
5645,22864,56450.00
5646,22900,56460.00
5647,22864,56470.00
5648,22604,56480.00
5649,22316,56490.00
5650,22256,56500.00
5651,22324,56510.00
5652,22412,56520.00
5653,22504,56530.00
5654,22540,56540.00
5655,22528,56550.00
5656,22524,56560.00
5657,22524,56570.00
5658,22536,56580.00
5659,22580,56590.00
5660,22640,56600.00
5661,22704,56610.00
5662,22780,56620.00
5663,22840,56630.00
5664,22884,56640.00
5665,22888,56650.00
5666,22732,56660.00
5667,22408,56670.00
5668,22204,56680.00
5669,22236,56690.00
5670,22352,56700.00
5671,22440,56710.00
5672,22500,56720.00
5673,22512,56730.00
5674,22504,56740.00
5675,22528,56750.00
5676,22572,56760.00
5677,22632,56770.00
5678,22684,56780.00
5679,22716,56790.00
5680,22788,56800.00
5681,22848,56810.00
5682,22888,56820.00
5683,22772,56830.00
5684,22436,56840.00
5685,22220,56850.00
5686,22240,56860.00
5687,22336,56870.00
5688,22400,56880.00
5689,22448,56890.00
5690,22476,56900.00
5691,22484,56910.00
5692,22528,56920.00
5693,22604,56930.00
5694,22680,56940.00
5695,22760,56950.00
5696,22832,56960.00
5697,22916,56970.00
5698,23008,56980.00
5699,23000,56990.00
5700,22756,57000.00
5701,22524,57010.00
5702,22500,57020.00
5703,22608,57030.00
5704,22724,57040.00
5705,22828,57050.00
5706,22868,57060.00
5707,22860,57070.00
5708,22852,57080.00
5709,22868,57090.00
5710,22892,57100.00
5711,22900,57110.00
5712,22924,57120.00
5713,22988,57130.00
5714,23040,57140.00
5715,22888,57150.00
5716,22604,57160.00
5717,22496,57170.00
5718,22568,57180.00
5719,22676,57190.00
5720,22784,57200.00
5721,22832,57210.00
5722,22824,57220.00
5723,22800,57230.00
5724,22812,57240.00
5725,22848,57250.00
5726,22888,57260.00
5727,22916,57270.00
5728,22940,57280.00
5729,22940,57290.00
5730,22736,57300.00
5731,22448,57310.00
5732,22352,57320.00
5733,22412,57330.00
5734,22496,57340.00
5735,22584,57350.00
5736,22616,57360.00
5737,22596,57370.00
5738,22580,57380.00
5739,22596,57390.00
5740,22656,57400.00
5741,22740,57410.00
5742,22796,57420.00
5743,22836,57430.00
5744,22744,57440.00
5745,22408,57450.00
5746,22156,57460.00
5747,22156,57470.00
5748,22212,57480.00
5749,22232,57490.00
5750,22296,57500.00
5751,22364,57510.00
5752,22400,57520.00
5753,22428,57530.00
5754,22476,57540.00
5755,22540,57550.00
5756,22628,57560.00
5757,22712,57570.00
5758,22792,57580.00
5759,22796,57590.00
5760,22540,57600.00
5761,22256,57610.00
5762,22172,57620.00
5763,22204,57630.00
5764,22232,57640.00
5765,22296,57650.00
5766,22368,57660.00
5767,22400,57670.00
5768,22412,57680.00
5769,22448,57690.00
5770,22504,57700.00
5771,22552,57710.00
5772,22604,57720.00
5773,22664,57730.00
5774,22720,57740.00
5775,22756,57750.00
5776,22784,57760.00
5777,22824,57770.00
5778,22800,57780.00
5779,22532,57790.00
5780,22208,57800.00
5781,22136,57810.00
5782,22164,57820.00
5783,22184,57830.00
5784,22244,57840.00
5785,22304,57850.00
5786,22332,57860.00
5787,22336,57870.00
5788,22348,57880.00
5789,22400,57890.00
5790,22480,57900.00
5791,22544,57910.00
5792,22596,57920.00
5793,22644,57930.00
5794,22696,57940.00
5795,22752,57950.00
5796,22816,57960.00
5797,22872,57970.00
5798,22924,57980.00
5799,22920,57990.00
5800,22696,58000.00
5801,22388,58010.00
5802,22296,58020.00
5803,22324,58030.00
5804,22352,58040.00
5805,22412,58050.00
5806,22476,58060.00
5807,22500,58070.00
5808,22508,58080.00
5809,22540,58090.00
5810,22600,58100.00
5811,22656,58110.00
5812,22704,58120.00
5813,22740,58130.00
5814,22784,58140.00
5815,22808,58150.00
5816,22832,58160.00
5817,22852,58170.00
5818,22876,58180.00
5819,22916,58190.00
5820,22928,58200.00
5821,22724,58210.00
5822,22448,58220.00
5823,22380,58230.00
5824,22464,58240.00
5825,22564,58250.00
5826,22668,58260.00
5827,22740,58270.00
5828,22768,58280.00
5829,22784,58290.00
5830,22824,58300.00
5831,22892,58310.00
5832,22960,58320.00
5833,23012,58330.00
5834,23036,58340.00
5835,23052,58350.00
5836,23076,58360.00
5837,23104,58370.00
5838,23132,58380.00
5839,23172,58390.00
5840,23208,58400.00
5841,23088,58410.00
5842,22812,58420.00
5843,22632,58430.00
5844,22632,58440.00
5845,22700,58450.00
5846,22764,58460.00
5847,22800,58470.00
5848,22804,58480.00
5849,22796,58490.00
5850,22800,58500.00
5851,22848,58510.00
5852,22920,58520.00
5853,22984,58530.00
5854,23040,58540.00
5855,23088,58550.00
5856,23132,58560.00
5857,23172,58570.00
5858,23208,58580.00
5859,23172,58590.00
5860,22916,58600.00
5861,22616,58610.00
5862,22508,58620.00
5863,22532,58630.00
5864,22584,58640.00
5865,22636,58650.00
5866,22676,58660.00
5867,22696,58670.00
5868,22704,58680.00
5869,22736,58690.00
5870,22804,58700.00
5871,22880,58710.00
5872,22932,58720.00
5873,22972,58730.00
5874,23012,58740.00
5875,23060,58750.00
5876,23108,58760.00
5877,23084,58770.00
5878,22848,58780.00
5879,22592,58790.00
5880,22524,58800.00
5881,22564,58810.00
5882,22608,58820.00
5883,22676,58830.00
5884,22728,58840.00
5885,22740,58850.00
5886,22744,58860.00
5887,22776,58870.00
5888,22840,58880.00
5889,22912,58890.00
5890,22992,58900.00
5891,23072,58910.00
5892,23132,58920.00
5893,23180,58930.00
5894,23224,58940.00
5895,23208,58950.00
5896,22964,58960.00
5897,22672,58970.00
5898,22592,58980.00
5899,22668,58990.00
5900,22736,59000.00
5901,22800,59010.00
5902,22844,59020.00
5903,22860,59030.00
5904,22884,59040.00
5905,22940,59050.00
5906,23008,59060.00
5907,23080,59070.00
5908,23148,59080.00
5909,23208,59090.00
5910,23264,59100.00
5911,23312,59110.00
5912,23356,59120.00
5913,23284,59130.00
5914,22984,59140.00
5915,22724,59150.00
5916,22684,59160.00
5917,22772,59170.00
5918,22852,59180.00
5919,22928,59190.00
5920,22948,59200.00
5921,22928,59210.00
5922,22928,59220.00
5923,22968,59230.00
5924,23044,59240.00
5925,23120,59250.00
5926,23180,59260.00
5927,23228,59270.00
5928,23284,59280.00
5929,23328,59290.00
5930,23256,59300.00
5931,22972,59310.00
5932,22736,59320.00
5933,22700,59330.00
5934,22756,59340.00
5935,22812,59350.00
5936,22868,59360.00
5937,22916,59370.00
5938,22928,59380.00
5939,22928,59390.00
5940,22968,59400.00
5941,23052,59410.00
5942,23148,59420.00
5943,23248,59430.00
5944,23336,59440.00
5945,23404,59450.00
5946,23432,59460.00
5947,23264,59470.00
5948,22992,59480.00
5949,22868,59490.00
5950,22896,59500.00
5951,22948,59510.00
5952,23004,59520.00
5953,23044,59530.00
5954,23052,59540.00
5955,23052,59550.00
5956,23084,59560.00
5957,23152,59570.00
5958,23220,59580.00
5959,23288,59590.00
5960,23344,59600.00
5961,23384,59610.00
5962,23300,59620.00
5963,23028,59630.00
5964,22820,59640.00
5965,22784,59650.00
5966,22836,59660.00
5967,22908,59670.00
5968,22972,59680.00
5969,22992,59690.00
5970,22992,59700.00
5971,23004,59710.00
5972,23036,59720.00
5973,23100,59730.00
5974,23172,59740.00
5975,23232,59750.00
5976,23292,59760.00
5977,23340,59770.00
5978,23228,59780.00
5979,22920,59790.00
5980,22704,59800.00
5981,22704,59810.00
5982,22764,59820.00
5983,22832,59830.00
5984,22896,59840.00
5985,22936,59850.00
5986,22948,59860.00
5987,22968,59870.00
5988,23008,59880.00
5989,23068,59890.00
5990,23132,59900.00
5991,23192,59910.00
5992,23248,59920.00
5993,23288,59930.00
5994,23200,59940.00
5995,22920,59950.00
5996,22724,59960.00
5997,22720,59970.00
5998,22788,59980.00
5999,22848,59990.00
