Sample_Index,IR_Value,Timestamp_ms
0,15280,0.00
1,15424,3.33
2,15824,6.67
3,16368,10.00
4,17260,13.33
5,18096,16.67
6,18840,20.00
7,19576,23.33
8,20188,26.67
9,20768,30.00
10,21200,33.33
11,21512,36.67
12,21596,40.00
13,21656,43.33
14,21976,46.67
15,22376,50.00
16,22916,53.33
17,23612,56.67
18,24368,60.00
19,24908,63.33
20,25240,66.67
21,25464,70.00
22,25652,73.33
23,25672,76.67
24,25776,80.00
25,25840,83.33
26,25900,86.67
27,25944,90.00
28,25972,93.33
29,25996,96.67
30,26028,100.00
31,26068,103.33
32,26108,106.67
33,26160,110.00
34,26192,113.33
35,26224,116.67
36,26244,120.00
37,26256,123.33
38,26276,126.67
39,26300,130.00
40,26320,133.33
41,26344,136.67
42,26364,140.00
43,26392,143.33
44,26416,146.67
45,26448,150.00
46,26468,153.33
47,26500,156.67
48,26524,160.00
49,26544,163.33
50,26556,166.67
51,26564,170.00
52,26576,173.33
53,26596,176.67
54,26608,180.00
55,26628,183.33
56,26640,186.67
57,26652,190.00
58,26664,193.33
59,26676,196.67
60,26680,200.00
61,26644,203.33
62,26568,206.67
63,26476,210.00
64,26372,213.33
65,26280,216.67
66,26208,220.00
67,26152,223.33
68,26120,226.67
69,26112,230.00
70,26104,233.33
71,26104,236.67
72,26104,240.00
73,26124,243.33
74,26164,246.67
75,26216,250.00
76,26212,253.33
77,26180,256.67
78,26116,260.00
79,26012,263.33
80,25904,266.67
81,25820,270.00
82,25756,273.33
83,25704,276.67
84,25656,280.00
85,25636,283.33
86,25612,286.67
87,25584,290.00
88,25552,293.33
89,25540,296.67
90,25536,300.00
91,25540,303.33
92,25556,306.67
93,25564,310.00
94,25568,313.33
95,25564,316.67
96,25556,320.00
97,25544,323.33
98,25532,326.67
99,25520,330.00
100,25516,333.33
101,25516,336.67
102,25524,340.00
103,25520,343.33
104,25528,346.67
105,25536,350.00
106,25548,353.33
107,25560,356.67
108,25576,360.00
109,25576,363.33
110,25524,366.67
111,25440,370.00
112,25360,373.33
113,25284,376.67
114,25216,380.00
115,25200,383.33
116,25192,386.67
117,25216,390.00
118,25244,393.33
119,25276,396.67
120,25304,400.00
121,25320,403.33
122,25324,406.67
123,25316,410.00
124,25288,413.33
125,25252,416.67
126,25236,420.00
127,25224,423.33
128,25208,426.67
129,25220,430.00
130,25244,433.33
131,25264,436.67
132,25284,440.00
133,25308,443.33
134,25340,446.67
135,25372,450.00
136,25420,453.33
137,25480,456.67
138,25520,460.00
139,25544,463.33
140,25576,466.67
141,25596,470.00
142,25612,473.33
143,25632,476.67
144,25648,480.00
145,25664,483.33
146,25680,486.67
147,25696,490.00
148,25716,493.33
149,25728,496.67
150,25740,500.00
151,25764,503.33
152,25784,506.67
153,25800,510.00
154,25804,513.33
155,25772,516.67
156,25696,520.00
157,25596,523.33
158,25488,526.67
159,25404,530.00
160,25336,533.33
161,25304,536.67
162,25300,540.00
163,25316,543.33
164,25336,546.67
165,25360,550.00
166,25396,553.33
167,25420,556.67
168,25448,560.00
169,25456,563.33
170,25460,566.67
171,25448,570.00
172,25444,573.33
173,25436,576.67
174,25436,580.00
175,25440,583.33
176,25444,586.67
177,25456,590.00
178,25480,593.33
179,25504,596.67
180,25536,600.00
181,25560,603.33
182,25580,606.67
183,25600,610.00
184,25612,613.33
185,25628,616.67
186,25644,620.00
187,25656,623.33
188,25668,626.67
189,25680,630.00
190,25688,633.33
191,25696,636.67
192,25708,640.00
193,25724,643.33
194,25736,646.67
195,25752,650.00
196,25768,653.33
197,25756,656.67
198,25700,660.00
199,25612,663.33
200,25496,666.67
201,25392,670.00
202,25312,673.33
203,25260,676.67
204,25252,680.00
205,25252,683.33
206,25264,686.67
207,25276,690.00
208,25288,693.33
209,25304,696.67
210,25324,700.00
211,25344,703.33
212,25352,706.67
213,25360,710.00
214,25352,713.33
215,25332,716.67
216,25300,720.00
217,25292,723.33
218,25304,726.67
219,25312,730.00
220,25324,733.33
221,25336,736.67
222,25360,740.00
223,25380,743.33
224,25400,746.67
225,25424,750.00
226,25460,753.33
227,25480,756.67
228,25492,760.00
229,25500,763.33
230,25512,766.67
231,25516,770.00
232,25520,773.33
233,25524,776.67
234,25532,780.00
235,25536,783.33
236,25528,786.67
237,25488,790.00
238,25400,793.33
239,25292,796.67
240,25176,800.00
241,25088,803.33
242,25032,806.67
243,25016,810.00
244,25020,813.33
245,25032,816.67
246,25048,820.00
247,25060,823.33
248,25068,826.67
249,25084,830.00
250,25092,833.33
251,25092,836.67
252,25088,840.00
253,25080,843.33
254,25056,846.67
255,25044,850.00
256,25028,853.33
257,25024,856.67
258,25020,860.00
259,25028,863.33
260,25044,866.67
261,25060,870.00
262,25076,873.33
263,25096,876.67
264,25120,880.00
265,25152,883.33
266,25184,886.67
267,25212,890.00
268,25232,893.33
269,25248,896.67
270,25264,900.00
271,25276,903.33
272,25288,906.67
273,25316,910.00
274,25324,913.33
275,25288,916.67
276,25212,920.00
277,25088,923.33
278,24960,926.67
279,24864,930.00
280,24800,933.33
281,24768,936.67
282,24760,940.00
283,24768,943.33
284,24784,946.67
285,24796,950.00
286,24808,953.33
287,24828,956.67
288,24840,960.00
289,24844,963.33
290,24836,966.67
291,24824,970.00
292,24808,973.33
293,24796,976.67
294,24788,980.00
295,24784,983.33
296,24796,986.67
297,24816,990.00
298,24844,993.33
299,24880,996.67
300,24904,1000.00
301,24936,1003.33
302,24968,1006.67
303,24996,1010.00
304,25028,1013.33
305,25064,1016.67
306,25100,1020.00
307,25136,1023.33
308,25172,1026.67
309,25204,1030.00
310,25232,1033.33
311,25256,1036.67
312,25276,1040.00
313,25296,1043.33
314,25312,1046.67
315,25332,1050.00
316,25324,1053.33
317,25272,1056.67
318,25172,1060.00
319,25032,1063.33
320,24892,1066.67
321,24788,1070.00
322,24716,1073.33
323,24684,1076.67
324,24672,1080.00
325,24676,1083.33
326,24680,1086.67
327,24680,1090.00
328,24688,1093.33
329,24692,1096.67
330,24708,1100.00
331,24716,1103.33
332,24724,1106.67
333,24728,1110.00
334,24728,1113.33
335,24720,1116.67
336,24720,1120.00
337,24724,1123.33
338,24740,1126.67
339,24760,1130.00
340,24788,1133.33
341,24812,1136.67
342,24836,1140.00
343,24860,1143.33
344,24880,1146.67
345,24908,1150.00
346,24940,1153.33
347,24964,1156.67
348,24992,1160.00
349,25012,1163.33
350,25028,1166.67
351,25044,1170.00
352,25064,1173.33
353,25080,1176.67
354,25096,1180.00
355,25116,1183.33
356,25136,1186.67
357,25152,1190.00
358,25176,1193.33
359,25192,1196.67
360,25212,1200.00
361,25224,1203.33
362,25240,1206.67
363,25252,1210.00
364,25268,1213.33
365,25280,1216.67
366,25284,1220.00
367,25244,1223.33
368,25148,1226.67
369,25012,1230.00
370,24860,1233.33
371,24732,1236.67
372,24644,1240.00
373,24592,1243.33
374,24568,1246.67
375,24564,1250.00
376,24568,1253.33
377,24568,1256.67
378,24572,1260.00
379,24576,1263.33
380,24588,1266.67
381,24600,1270.00
382,24600,1273.33
383,24600,1276.67
384,24596,1280.00
385,24592,1283.33
386,24600,1286.67
387,24612,1290.00
388,24640,1293.33
389,24664,1296.67
390,24696,1300.00
391,24732,1303.33
392,24764,1306.67
393,24788,1310.00
394,24812,1313.33
395,24828,1316.67
396,24852,1320.00
397,24880,1323.33
398,24908,1326.67
399,24932,1330.00
400,24952,1333.33
401,24968,1336.67
402,24988,1340.00
403,25008,1343.33
404,25024,1346.67
405,25048,1350.00
406,25068,1353.33
407,25092,1356.67
408,25116,1360.00
409,25136,1363.33
410,25148,1366.67
411,25168,1370.00
412,25176,1373.33
413,25188,1376.67
414,25204,1380.00
415,25220,1383.33
416,25224,1386.67
417,25172,1390.00
418,25064,1393.33
419,24912,1396.67
420,24760,1400.00
421,24632,1403.33
422,24552,1406.67
423,24512,1410.00
424,24508,1413.33
425,24520,1416.67
426,24536,1420.00
427,24556,1423.33
428,24572,1426.67
429,24604,1430.00
430,24640,1433.33
431,24668,1436.67
432,24684,1440.00
433,24680,1443.33
434,24668,1446.67
435,24664,1450.00
436,24668,1453.33
437,24680,1456.67
438,24704,1460.00
439,24732,1463.33
440,24760,1466.67
441,24788,1470.00
442,24820,1473.33
443,24848,1476.67
444,24884,1480.00
445,24908,1483.33
446,24920,1486.67
447,24944,1490.00
448,24980,1493.33
449,25028,1496.67
450,25052,1500.00
451,25064,1503.33
452,25068,1506.67
453,25048,1510.00
454,25020,1513.33
455,24992,1516.67
456,24972,1520.00
457,24960,1523.33
458,24952,1526.67
459,24952,1530.00
460,24960,1533.33
461,24968,1536.67
462,24976,1540.00
463,24944,1543.33
464,24860,1546.67
465,24748,1550.00
466,24632,1553.33
467,24536,1556.67
468,24472,1560.00
469,24456,1563.33
470,24472,1566.67
471,24508,1570.00
472,24548,1573.33
473,24592,1576.67
474,24644,1580.00
475,24700,1583.33
476,24732,1586.67
477,24728,1590.00
478,24696,1593.33
479,24648,1596.67
480,24576,1600.00
481,24520,1603.33
482,24492,1606.67
483,24480,1610.00
484,24476,1613.33
485,24484,1616.67
486,24504,1620.00
487,24540,1623.33
488,24580,1626.67
489,24604,1630.00
490,24628,1633.33
491,24648,1636.67
492,24656,1640.00
493,24672,1643.33
494,24688,1646.67
495,24712,1650.00
496,24736,1653.33
497,24760,1656.67
498,24784,1660.00
499,24800,1663.33
500,24820,1666.67
501,24848,1670.00
502,24868,1673.33
503,24892,1676.67
504,24920,1680.00
505,24944,1683.33
506,24932,1686.67
507,24860,1690.00
508,24732,1693.33
509,24580,1696.67
510,24444,1700.00
511,24336,1703.33
512,24268,1706.67
513,24236,1710.00
514,24240,1713.33
515,24264,1716.67
516,24292,1720.00
517,24328,1723.33
518,24368,1726.67
519,24412,1730.00
520,24456,1733.33
521,24492,1736.67
522,24508,1740.00
523,24516,1743.33
524,24516,1746.67
525,24516,1750.00
526,24516,1753.33
527,24528,1756.67
528,24544,1760.00
529,24576,1763.33
530,24604,1766.67
531,24644,1770.00
532,24676,1773.33
533,24708,1776.67
534,24744,1780.00
535,24776,1783.33
536,24804,1786.67
537,24828,1790.00
538,24848,1793.33
539,24872,1796.67
540,24884,1800.00
541,24900,1803.33
542,24916,1806.67
543,24928,1810.00
544,24940,1813.33
545,24960,1816.67
546,24976,1820.00
547,24964,1823.33
548,24896,1826.67
549,24764,1830.00
550,24608,1833.33
551,24452,1836.67
552,24340,1840.00
553,24264,1843.33
554,24236,1846.67
555,24236,1850.00
556,24252,1853.33
557,24268,1856.67
558,24284,1860.00
559,24300,1863.33
560,24324,1866.67
561,24352,1870.00
562,24384,1873.33
563,24396,1876.67
564,24404,1880.00
565,24404,1883.33
566,24396,1886.67
567,24380,1890.00
568,24372,1893.33
569,24376,1896.67
570,24392,1900.00
571,24416,1903.33
572,24444,1906.67
573,24472,1910.00
574,24500,1913.33
575,24524,1916.67
576,24548,1920.00
577,24568,1923.33
578,24592,1926.67
579,24608,1930.00
580,24616,1933.33
581,24628,1936.67
582,24660,1940.00
583,24696,1943.33
584,24740,1946.67
585,24760,1950.00
586,24716,1953.33
587,24616,1956.67
588,24488,1960.00
589,24364,1963.33
590,24276,1966.67
591,24232,1970.00
592,24224,1973.33
593,24240,1976.67
594,24268,1980.00
595,24296,1983.33
596,24328,1986.67
597,24368,1990.00
598,24408,1993.33
599,24444,1996.67
600,24476,2000.00
601,24496,2003.33
602,24512,2006.67
603,24524,2010.00
604,24532,2013.33
605,24548,2016.67
606,24572,2020.00
607,24600,2023.33
608,24628,2026.67
609,24668,2030.00
610,24704,2033.33
611,24740,2036.67
612,24776,2040.00
613,24808,2043.33
614,24836,2046.67
615,24872,2050.00
616,24908,2053.33
617,24948,2056.67
618,24976,2060.00
619,24996,2063.33
620,24964,2066.67
621,24884,2070.00
622,24772,2073.33
623,24656,2076.67
624,24564,2080.00
625,24504,2083.33
626,24480,2086.67
627,24476,2090.00
628,24488,2093.33
629,24504,2096.67
630,24524,2100.00
631,24540,2103.33
632,24560,2106.67
633,24584,2110.00
634,24604,2113.33
635,24608,2116.67
636,24612,2120.00
637,24604,2123.33
638,24588,2126.67
639,24588,2130.00
640,24596,2133.33
641,24616,2136.67
642,24640,2140.00
643,24668,2143.33
644,24696,2146.67
645,24728,2150.00
646,24764,2153.33
647,24796,2156.67
648,24828,2160.00
649,24860,2163.33
650,24888,2166.67
651,24920,2170.00
652,24948,2173.33
653,24964,2176.67
654,24944,2180.00
655,24868,2183.33
656,24760,2186.67
657,24640,2190.00
658,24540,2193.33
659,24472,2196.67
660,24444,2200.00
661,24444,2203.33
662,24460,2206.67
663,24476,2210.00
664,24496,2213.33
665,24512,2216.67
666,24536,2220.00
667,24564,2223.33
668,24576,2226.67
669,24580,2230.00
670,24568,2233.33
671,24548,2236.67
672,24524,2240.00
673,24496,2243.33
674,24484,2246.67
675,24480,2250.00
676,24484,2253.33
677,24492,2256.67
678,24504,2260.00
679,24524,2263.33
680,24536,2266.67
681,24560,2270.00
682,24572,2273.33
683,24588,2276.67
684,24600,2280.00
685,24616,2283.33
686,24628,2286.67
687,24636,2290.00
688,24632,2293.33
689,24576,2296.67
690,24468,2300.00
691,24328,2303.33
692,24188,2306.67
693,24076,2310.00
694,24000,2313.33
695,23964,2316.67
696,23956,2320.00
697,23960,2323.33
698,23968,2326.67
699,23976,2330.00
700,23988,2333.33
701,24012,2336.67
702,24044,2340.00
703,24076,2343.33
704,24092,2346.67
705,24104,2350.00
706,24104,2353.33
707,24104,2356.67
708,24108,2360.00
709,24120,2363.33
710,24140,2366.67
711,24160,2370.00
712,24192,2373.33
713,24220,2376.67
714,24252,2380.00
715,24280,2383.33
716,24300,2386.67
717,24328,2390.00
718,24348,2393.33
719,24376,2396.67
720,24408,2400.00
721,24424,2403.33
722,24444,2406.67
723,24468,2410.00
724,24488,2413.33
725,24512,2416.67
726,24508,2420.00
727,24476,2423.33
728,24384,2426.67
729,24260,2430.00
730,24140,2433.33
731,24044,2436.67
732,23996,2440.00
733,23972,2443.33
734,23968,2446.67
735,23980,2450.00
736,23984,2453.33
737,23996,2456.67
738,24008,2460.00
739,24028,2463.33
740,24064,2466.67
741,24096,2470.00
742,24124,2473.33
743,24144,2476.67
744,24152,2480.00
745,24156,2483.33
746,24164,2486.67
747,24176,2490.00
748,24188,2493.33
749,24208,2496.67
750,24236,2500.00
751,24260,2503.33
752,24288,2506.67
753,24316,2510.00
754,24348,2513.33
755,24376,2516.67
756,24400,2520.00
757,24420,2523.33
758,24440,2526.67
759,24456,2530.00
760,24468,2533.33
761,24488,2536.67
762,24504,2540.00
763,24524,2543.33
764,24544,2546.67
765,24564,2550.00
766,24584,2553.33
767,24608,2556.67
768,24624,2560.00
769,24644,2563.33
770,24664,2566.67
771,24684,2570.00
772,24700,2573.33
773,24676,2576.67
774,24604,2580.00
775,24484,2583.33
776,24352,2586.67
777,24240,2590.00
778,24160,2593.33
779,24120,2596.67
780,24104,2600.00
781,24108,2603.33
782,24112,2606.67
783,24116,2610.00
784,24132,2613.33
785,24144,2616.67
786,24172,2620.00
787,24196,2623.33
788,24224,2626.67
789,24244,2630.00
790,24252,2633.33
791,24260,2636.67
792,24264,2640.00
793,24276,2643.33
794,24292,2646.67
795,24312,2650.00
796,24336,2653.33
797,24360,2656.67
798,24388,2660.00
799,24420,2663.33
800,24448,2666.67
801,24476,2670.00
802,24504,2673.33
803,24532,2676.67
804,24556,2680.00
805,24572,2683.33
806,24588,2686.67
807,24608,2690.00
808,24628,2693.33
809,24644,2696.67
810,24668,2700.00
811,24692,2703.33
812,24708,2706.67
813,24732,2710.00
814,24752,2713.33
815,24768,2716.67
816,24788,2720.00
817,24808,2723.33
818,24828,2726.67
819,24848,2730.00
820,24848,2733.33
821,24804,2736.67
822,24716,2740.00
823,24596,2743.33
824,24480,2746.67
825,24384,2750.00
826,24320,2753.33
827,24280,2756.67
828,24272,2760.00
829,24272,2763.33
830,24276,2766.67
831,24288,2770.00
832,24292,2773.33
833,24312,2776.67
834,24332,2780.00
835,24356,2783.33
836,24372,2786.67
837,24388,2790.00
838,24388,2793.33
839,24396,2796.67
840,24392,2800.00
841,24400,2803.33
842,24416,2806.67
843,24432,2810.00
844,24456,2813.33
845,24484,2816.67
846,24512,2820.00
847,24540,2823.33
848,24568,2826.67
849,24592,2830.00
850,24616,2833.33
851,24640,2836.67
852,24656,2840.00
853,24680,2843.33
854,24696,2846.67
855,24716,2850.00
856,24732,2853.33
857,24756,2856.67
858,24776,2860.00
859,24796,2863.33
860,24820,2866.67
861,24836,2870.00
862,24856,2873.33
863,24876,2876.67
864,24892,2880.00
865,24912,2883.33
866,24928,2886.67
867,24952,2890.00
868,24968,2893.33
869,24948,2896.67
870,24880,2900.00
871,24772,2903.33
872,24644,2906.67
873,24532,2910.00
874,24452,2913.33
875,24400,2916.67
876,24384,2920.00
877,24376,2923.33
878,24384,2926.67
879,24388,2930.00
880,24404,2933.33
881,24416,2936.67
882,24436,2940.00
883,24460,2943.33
884,24480,2946.67
885,24496,2950.00
886,24504,2953.33
887,24504,2956.67
888,24504,2960.00
889,24516,2963.33
890,24520,2966.67
891,24544,2970.00
892,24560,2973.33
893,24588,2976.67
894,24620,2980.00
895,24644,2983.33
896,24668,2986.67
897,24692,2990.00
898,24716,2993.33
899,24736,2996.67
900,24752,3000.00
901,24776,3003.33
902,24792,3006.67
903,24808,3010.00
904,24824,3013.33
905,24836,3016.67
906,24844,3020.00
907,24856,3023.33
908,24872,3026.67
909,24880,3030.00
910,24896,3033.33
911,24912,3036.67
912,24924,3040.00
913,24936,3043.33
914,24944,3046.67
915,24924,3050.00
916,24852,3053.33
917,24740,3056.67
918,24612,3060.00
919,24488,3063.33
920,24400,3066.67
921,24344,3070.00
922,24312,3073.33
923,24300,3076.67
924,24304,3080.00
925,24304,3083.33
926,24316,3086.67
927,24324,3090.00
928,24344,3093.33
929,24356,3096.67
930,24368,3100.00
931,24372,3103.33
932,24376,3106.67
933,24368,3110.00
934,24364,3113.33
935,24368,3116.67
936,24376,3120.00
937,24388,3123.33
938,24404,3126.67
939,24428,3130.00
940,24460,3133.33
941,24496,3136.67
942,24528,3140.00
943,24552,3143.33
944,24580,3146.67
945,24604,3150.00
946,24628,3153.33
947,24652,3156.67
948,24676,3160.00
949,24700,3163.33
950,24716,3166.67
951,24740,3170.00
952,24752,3173.33
953,24772,3176.67
954,24784,3180.00
955,24804,3183.33
956,24820,3186.67
957,24824,3190.00
958,24788,3193.33
959,24708,3196.67
960,24592,3200.00
961,24472,3203.33
962,24368,3206.67
963,24300,3210.00
964,24260,3213.33
965,24248,3216.67
966,24260,3220.00
967,24276,3223.33
968,24292,3226.67
969,24324,3230.00
970,24348,3233.33
971,24376,3236.67
972,24400,3240.00
973,24408,3243.33
974,24408,3246.67
975,24404,3250.00
976,24396,3253.33
977,24392,3256.67
978,24400,3260.00
979,24412,3263.33
980,24432,3266.67
981,24460,3270.00
982,24488,3273.33
983,24516,3276.67
984,24544,3280.00
985,24564,3283.33
986,24592,3286.67
987,24616,3290.00
988,24640,3293.33
989,24664,3296.67
990,24680,3300.00
991,24696,3303.33
992,24712,3306.67
993,24728,3310.00
994,24748,3313.33
995,24772,3316.67
996,24788,3320.00
997,24812,3323.33
998,24820,3326.67
999,24784,3330.00
1000,24692,3333.33
1001,24560,3336.67
1002,24420,3340.00
1003,24292,3343.33
1004,24200,3346.67
1005,24148,3350.00
1006,24128,3353.33
1007,24132,3356.67
1008,24132,3360.00
1009,24128,3363.33
1010,24128,3366.67
1011,24140,3370.00
1012,24160,3373.33
1013,24176,3376.67
1014,24184,3380.00
1015,24188,3383.33
1016,24188,3386.67
1017,24184,3390.00
1018,24176,3393.33
1019,24172,3396.67
1020,24176,3400.00
1021,24196,3403.33
1022,24220,3406.67
1023,24248,3410.00
1024,24268,3413.33
1025,24288,3416.67
1026,24308,3420.00
1027,24324,3423.33
1028,24344,3426.67
1029,24360,3430.00
1030,24376,3433.33
1031,24396,3436.67
1032,24408,3440.00
1033,24424,3443.33
1034,24436,3446.67
1035,24444,3450.00
1036,24460,3453.33
1037,24484,3456.67
1038,24488,3460.00
1039,24460,3463.33
1040,24372,3466.67
1041,24240,3470.00
1042,24092,3473.33
1043,23972,3476.67
1044,23884,3480.00
1045,23840,3483.33
1046,23828,3486.67
1047,23824,3490.00
1048,23840,3493.33
1049,23852,3496.67
1050,23868,3500.00
1051,23880,3503.33
1052,23900,3506.67
1053,23920,3510.00
1054,23936,3513.33
1055,23940,3516.67
1056,23932,3520.00
1057,23920,3523.33
1058,23924,3526.67
1059,23932,3530.00
1060,23952,3533.33
1061,23984,3536.67
1062,24008,3540.00
1063,24036,3543.33
1064,24068,3546.67
1065,24100,3550.00
1066,24128,3553.33
1067,24156,3556.67
1068,24188,3560.00
1069,24216,3563.33
1070,24248,3566.67
1071,24272,3570.00
1072,24296,3573.33
1073,24316,3576.67
1074,24336,3580.00
1075,24348,3583.33
1076,24364,3586.67
1077,24380,3590.00
1078,24404,3593.33
1079,24428,3596.67
1080,24444,3600.00
1081,24420,3603.33
1082,24336,3606.67
1083,24200,3610.00
1084,24056,3613.33
1085,23936,3616.67
1086,23860,3620.00
1087,23840,3623.33
1088,23840,3626.67
1089,23856,3630.00
1090,23880,3633.33
1091,23896,3636.67
1092,23912,3640.00
1093,23928,3643.33
1094,23952,3646.67
1095,23976,3650.00
1096,24000,3653.33
1097,24020,3656.67
1098,24040,3660.00
1099,24048,3663.33
1100,24056,3666.67
1101,24060,3670.00
1102,24076,3673.33
1103,24092,3676.67
1104,24120,3680.00
1105,24148,3683.33
1106,24188,3686.67
1107,24228,3690.00
1108,24260,3693.33
1109,24296,3696.67
1110,24324,3700.00
1111,24348,3703.33
1112,24376,3706.67
1113,24396,3710.00
1114,24424,3713.33
1115,24444,3716.67
1116,24472,3720.00
1117,24500,3723.33
1118,24524,3726.67
1119,24548,3730.00
1120,24572,3733.33
1121,24596,3736.67
1122,24624,3740.00
1123,24652,3743.33
1124,24680,3746.67
1125,24700,3750.00
1126,24668,3753.33
1127,24568,3756.67
1128,24424,3760.00
1129,24276,3763.33
1130,24152,3766.67
1131,24080,3770.00
1132,24048,3773.33
1133,24044,3776.67
1134,24064,3780.00
1135,24084,3783.33
1136,24092,3786.67
1137,24108,3790.00
1138,24128,3793.33
1139,24152,3796.67
1140,24172,3800.00
1141,24188,3803.33
1142,24192,3806.67
1143,24192,3810.00
1144,24188,3813.33
1145,24196,3816.67
1146,24208,3820.00
1147,24220,3823.33
1148,24240,3826.67
1149,24256,3830.00
1150,24280,3833.33
1151,24312,3836.67
1152,24344,3840.00
1153,24372,3843.33
1154,24400,3846.67
1155,24416,3850.00
1156,24436,3853.33
1157,24452,3856.67
1158,24464,3860.00
1159,24476,3863.33
1160,24492,3866.67
1161,24512,3870.00
1162,24528,3873.33
1163,24548,3876.67
1164,24564,3880.00
1165,24576,3883.33
1166,24596,3886.67
1167,24616,3890.00
1168,24628,3893.33
1169,24616,3896.67
1170,24540,3900.00
1171,24416,3903.33
1172,24264,3906.67
1173,24124,3910.00
1174,24028,3913.33
1175,23976,3916.67
1176,23960,3920.00
1177,23968,3923.33
1178,23988,3926.67
1179,24016,3930.00
1180,24040,3933.33
1181,24068,3936.67
1182,24096,3940.00
1183,24124,3943.33
1184,24136,3946.67
1185,24140,3950.00
1186,24136,3953.33
1187,24128,3956.67
1188,24128,3960.00
1189,24140,3963.33
1190,24164,3966.67
1191,24188,3970.00
1192,24224,3973.33
1193,24252,3976.67
1194,24284,3980.00
1195,24316,3983.33
1196,24348,3986.67
1197,24384,3990.00
1198,24416,3993.33
1199,24448,3996.67
1200,24480,4000.00
1201,24504,4003.33
1202,24524,4006.67
1203,24536,4010.00
1204,24552,4013.33
1205,24572,4016.67
1206,24596,4020.00
1207,24616,4023.33
1208,24636,4026.67
1209,24660,4030.00
1210,24680,4033.33
1211,24700,4036.67
1212,24724,4040.00
1213,24740,4043.33
1214,24728,4046.67
1215,24652,4050.00
1216,24516,4053.33
1217,24352,4056.67
1218,24200,4060.00
1219,24092,4063.33
1220,24032,4066.67
1221,24008,4070.00
1222,24012,4073.33
1223,24024,4076.67
1224,24044,4080.00
1225,24056,4083.33
1226,24076,4086.67
1227,24104,4090.00
1228,24132,4093.33
1229,24148,4096.67
1230,24160,4100.00
1231,24156,4103.33
1232,24148,4106.67
1233,24136,4110.00
1234,24136,4113.33
1235,24148,4116.67
1236,24168,4120.00
1237,24196,4123.33
1238,24224,4126.67
1239,24256,4130.00
1240,24280,4133.33
1241,24312,4136.67
1242,24336,4140.00
1243,24364,4143.33
1244,24396,4146.67
1245,24420,4150.00
1246,24448,4153.33
1247,24464,4156.67
1248,24480,4160.00
1249,24500,4163.33
1250,24520,4166.67
1251,24536,4170.00
1252,24552,4173.33
1253,24572,4176.67
1254,24592,4180.00
1255,24624,4183.33
1256,24640,4186.67
1257,24664,4190.00
1258,24648,4193.33
1259,24572,4196.67
1260,24432,4200.00
1261,24268,4203.33
1262,24124,4206.67
1263,24028,4210.00
1264,23984,4213.33
1265,23976,4216.67
1266,23996,4220.00
1267,24016,4223.33
1268,24036,4226.67
1269,24052,4230.00
1270,24072,4233.33
1271,24108,4236.67
1272,24144,4240.00
1273,24172,4243.33
1274,24192,4246.67
1275,24200,4250.00
1276,24192,4253.33
1277,24180,4256.67
1278,24176,4260.00
1279,24180,4263.33
1280,24196,4266.67
1281,24220,4270.00
1282,24248,4273.33
1283,24276,4276.67
1284,24304,4280.00
1285,24332,4283.33
1286,24356,4286.67
1287,24384,4290.00
1288,24404,4293.33
1289,24428,4296.67
1290,24452,4300.00
1291,24472,4303.33
1292,24496,4306.67
1293,24508,4310.00
1294,24520,4313.33
1295,24536,4316.67
1296,24548,4320.00
1297,24560,4323.33
1298,24580,4326.67
1299,24604,4330.00
1300,24628,4333.33
1301,24648,4336.67
1302,24636,4340.00
1303,24560,4343.33
1304,24424,4346.67
1305,24256,4350.00
1306,24096,4353.33
1307,23984,4356.67
1308,23932,4360.00
1309,23928,4363.33
1310,23940,4366.67
1311,23972,4370.00
1312,23992,4373.33
1313,24008,4376.67
1314,24024,4380.00
1315,24052,4383.33
1316,24084,4386.67
1317,24116,4390.00
1318,24136,4393.33
1319,24144,4396.67
1320,24144,4400.00
1321,24140,4403.33
1322,24140,4406.67
1323,24144,4410.00
1324,24156,4413.33
1325,24176,4416.67
1326,24204,4420.00
1327,24236,4423.33
1328,24272,4426.67
1329,24304,4430.00
1330,24332,4433.33
1331,24356,4436.67
1332,24380,4440.00
1333,24404,4443.33
1334,24416,4446.67
1335,24436,4450.00
1336,24452,4453.33
1337,24472,4456.67
1338,24488,4460.00
1339,24504,4463.33
1340,24520,4466.67
1341,24532,4470.00
1342,24544,4473.33
1343,24564,4476.67
1344,24568,4480.00
1345,24516,4483.33
1346,24400,4486.67
1347,24244,4490.00
1348,24092,4493.33
1349,23976,4496.67
1350,23912,4500.00
1351,23900,4503.33
1352,23908,4506.67
1353,23936,4510.00
1354,23968,4513.33
1355,24000,4516.67
1356,24028,4520.00
1357,24060,4523.33
1358,24096,4526.67
1359,24112,4530.00
1360,24120,4533.33
1361,24112,4536.67
1362,24096,4540.00
1363,24088,4543.33
1364,24088,4546.67
1365,24108,4550.00
1366,24128,4553.33
1367,24156,4556.67
1368,24180,4560.00
1369,24208,4563.33
1370,24240,4566.67
1371,24272,4570.00
1372,24300,4573.33
1373,24328,4576.67
1374,24352,4580.00
1375,24372,4583.33
1376,24392,4586.67
1377,24408,4590.00
1378,24420,4593.33
1379,24432,4596.67
1380,24448,4600.00
1381,24464,4603.33
1382,24484,4606.67
1383,24512,4610.00
1384,24520,4613.33
1385,24476,4616.67
1386,24364,4620.00
1387,24204,4623.33
1388,24044,4626.67
1389,23920,4630.00
1390,23848,4633.33
1391,23828,4636.67
1392,23844,4640.00
1393,23872,4643.33
1394,23904,4646.67
1395,23924,4650.00
1396,23948,4653.33
1397,23972,4656.67
1398,24000,4660.00
1399,24028,4663.33
1400,24036,4666.67
1401,24044,4670.00
1402,24048,4673.33
1403,24040,4676.67
1404,24040,4680.00
1405,24048,4683.33
1406,24068,4686.67
1407,24092,4690.00
1408,24120,4693.33
1409,24152,4696.67
1410,24188,4700.00
1411,24224,4703.33
1412,24260,4706.67
1413,24292,4710.00
1414,24316,4713.33
1415,24340,4716.67
1416,24360,4720.00
1417,24380,4723.33
1418,24396,4726.67
1419,24412,4730.00
1420,24428,4733.33
1421,24448,4736.67
1422,24460,4740.00
1423,24476,4743.33
1424,24492,4746.67
1425,24512,4750.00
1426,24528,4753.33
1427,24532,4756.67
1428,24476,4760.00
1429,24348,4763.33
1430,24180,4766.67
1431,24008,4770.00
1432,23880,4773.33
1433,23804,4776.67
1434,23784,4780.00
1435,23788,4783.33
1436,23804,4786.67
1437,23832,4790.00
1438,23852,4793.33
1439,23872,4796.67
1440,23896,4800.00
1441,23928,4803.33
1442,23956,4806.67
1443,23980,4810.00
1444,23988,4813.33
1445,23988,4816.67
1446,23980,4820.00
1447,23988,4823.33
1448,24004,4826.67
1449,24024,4830.00
1450,24048,4833.33
1451,24080,4836.67
1452,24112,4840.00
1453,24144,4843.33
1454,24176,4846.67
1455,24208,4850.00
1456,24240,4853.33
1457,24264,4856.67
1458,24292,4860.00
1459,24312,4863.33
1460,24332,4866.67
1461,24348,4870.00
1462,24364,4873.33
1463,24380,4876.67
1464,24396,4880.00
1465,24420,4883.33
1466,24436,4886.67
1467,24456,4890.00
1468,24472,4893.33
1469,24496,4896.67
1470,24516,4900.00
1471,24536,4903.33
1472,24516,4906.67
1473,24428,4910.00
1474,24280,4913.33
1475,24096,4916.67
1476,23940,4920.00
1477,23832,4923.33
1478,23780,4926.67
1479,23768,4930.00
1480,23780,4933.33
1481,23800,4936.67
1482,23816,4940.00
1483,23824,4943.33
1484,23840,4946.67
1485,23868,4950.00
1486,23900,4953.33
1487,23924,4956.67
1488,23940,4960.00
1489,23948,4963.33
1490,23940,4966.67
1491,23932,4970.00
1492,23932,4973.33
1493,23944,4976.67
1494,23968,4980.00
1495,23996,4983.33
1496,24028,4986.67
1497,24060,4990.00
1498,24088,4993.33
1499,24120,4996.67
1500,24148,5000.00
1501,24176,5003.33
1502,24208,5006.67
1503,24236,5010.00
1504,24260,5013.33
1505,24284,5016.67
1506,24300,5020.00
1507,24316,5023.33
1508,24332,5026.67
1509,24348,5030.00
1510,24364,5033.33
1511,24380,5036.67
1512,24400,5040.00
1513,24424,5043.33
1514,24444,5046.67
1515,24468,5050.00
1516,24488,5053.33
1517,24476,5056.67
1518,24400,5060.00
1519,24256,5063.33
1520,24076,5066.67
1521,23916,5070.00
1522,23800,5073.33
1523,23740,5076.67
1524,23720,5080.00
1525,23728,5083.33
1526,23752,5086.67
1527,23772,5090.00
1528,23788,5093.33
1529,23808,5096.67
1530,23832,5100.00
1531,23852,5103.33
1532,23864,5106.67
1533,23872,5110.00
1534,23880,5113.33
1535,23868,5116.67
1536,23856,5120.00
1537,23848,5123.33
1538,23852,5126.67
1539,23872,5130.00
1540,23900,5133.33
1541,23940,5136.67
1542,23976,5140.00
1543,24016,5143.33
1544,24052,5146.67
1545,24076,5150.00
1546,24100,5153.33
1547,24120,5156.67
1548,24140,5160.00
1549,24156,5163.33
1550,24172,5166.67
1551,24192,5170.00
1552,24212,5173.33
1553,24232,5176.67
1554,24248,5180.00
1555,24264,5183.33
1556,24272,5186.67
1557,24288,5190.00
1558,24304,5193.33
1559,24324,5196.67
1560,24308,5200.00
1561,24228,5203.33
1562,24088,5206.67
1563,23912,5210.00
1564,23764,5213.33
1565,23664,5216.67
1566,23628,5220.00
1567,23632,5223.33
1568,23660,5226.67
1569,23700,5230.00
1570,23736,5233.33
1571,23764,5236.67
1572,23796,5240.00
1573,23824,5243.33
1574,23856,5246.67
1575,23868,5250.00
1576,23864,5253.33
1577,23856,5256.67
1578,23848,5260.00
1579,23844,5263.33
1580,23848,5266.67
1581,23872,5270.00
1582,23892,5273.33
1583,23920,5276.67
1584,23956,5280.00
1585,23988,5283.33
1586,24024,5286.67
1587,24056,5290.00
1588,24096,5293.33
1589,24124,5296.67
1590,24152,5300.00
1591,24176,5303.33
1592,24196,5306.67
1593,24212,5310.00
1594,24228,5313.33
1595,24240,5316.67
1596,24252,5320.00
1597,24268,5323.33
1598,24288,5326.67
1599,24308,5330.00
1600,24324,5333.33
1601,24348,5336.67
1602,24368,5340.00
1603,24364,5343.33
1604,24300,5346.67
1605,24168,5350.00
1606,23992,5353.33
1607,23820,5356.67
1608,23700,5360.00
1609,23640,5363.33
1610,23624,5366.67
1611,23640,5370.00
1612,23660,5373.33
1613,23684,5376.67
1614,23708,5380.00
1615,23724,5383.33
1616,23756,5386.67
1617,23796,5390.00
1618,23824,5393.33
1619,23840,5396.67
1620,23844,5400.00
1621,23836,5403.33
1622,23828,5406.67
1623,23824,5410.00
1624,23844,5413.33
1625,23864,5416.67
1626,23892,5420.00
1627,23932,5423.33
1628,23964,5426.67
1629,23996,5430.00
1630,24032,5433.33
1631,24060,5436.67
1632,24096,5440.00
1633,24124,5443.33
1634,24156,5446.67
1635,24180,5450.00
1636,24200,5453.33
1637,24216,5456.67
1638,24236,5460.00
1639,24264,5463.33
1640,24284,5466.67
1641,24308,5470.00
1642,24328,5473.33
1643,24344,5476.67
1644,24364,5480.00
1645,24384,5483.33
1646,24408,5486.67
1647,24432,5490.00
1648,24456,5493.33
1649,24452,5496.67
1650,24392,5500.00
1651,24256,5503.33
1652,24076,5506.67
1653,23896,5510.00
1654,23756,5513.33
1655,23692,5516.67
1656,23676,5520.00
1657,23684,5523.33
1658,23704,5526.67
1659,23724,5530.00
1660,23740,5533.33
1661,23764,5536.67
1662,23796,5540.00
1663,23836,5543.33
1664,23868,5546.67
1665,23884,5550.00
1666,23892,5553.33
1667,23888,5556.67
1668,23876,5560.00
1669,23876,5563.33
1670,23884,5566.67
1671,23904,5570.00
1672,23928,5573.33
1673,23952,5576.67
1674,23984,5580.00
1675,24020,5583.33
1676,24052,5586.67
1677,24080,5590.00
1678,24108,5593.33
1679,24136,5596.67
1680,24164,5600.00
1681,24200,5603.33
1682,24224,5606.67
1683,24236,5610.00
1684,24256,5613.33
1685,24284,5616.67
1686,24304,5620.00
1687,24328,5623.33
1688,24348,5626.67
1689,24380,5630.00
1690,24408,5633.33
1691,24432,5636.67
1692,24452,5640.00
1693,24476,5643.33
1694,24476,5646.67
1695,24404,5650.00
1696,24256,5653.33
1697,24072,5656.67
1698,23896,5660.00
1699,23776,5663.33
1700,23712,5666.67
1701,23700,5670.00
1702,23704,5673.33
1703,23724,5676.67
1704,23748,5680.00
1705,23772,5683.33
1706,23788,5686.67
1707,23816,5690.00
1708,23860,5693.33
1709,23904,5696.67
1710,23928,5700.00
1711,23940,5703.33
1712,23932,5706.67
1713,23920,5710.00
1714,23912,5713.33
1715,23920,5716.67
1716,23940,5720.00
1717,23968,5723.33
1718,24000,5726.67
1719,24032,5730.00
1720,24064,5733.33
1721,24092,5736.67
1722,24120,5740.00
1723,24148,5743.33
1724,24176,5746.67
1725,24204,5750.00
1726,24228,5753.33
1727,24252,5756.67
1728,24272,5760.00
1729,24292,5763.33
1730,24308,5766.67
1731,24324,5770.00
1732,24344,5773.33
1733,24360,5776.67
1734,24380,5780.00
1735,24400,5783.33
1736,24424,5786.67
1737,24448,5790.00
1738,24436,5793.33
1739,24360,5796.67
1740,24212,5800.00
1741,24028,5803.33
1742,23860,5806.67
1743,23740,5810.00
1744,23688,5813.33
1745,23676,5816.67
1746,23704,5820.00
1747,23736,5823.33
1748,23772,5826.67
1749,23796,5830.00
1750,23820,5833.33
1751,23856,5836.67
1752,23892,5840.00
1753,23924,5843.33
1754,23940,5846.67
1755,23944,5850.00
1756,23936,5853.33
1757,23924,5856.67
1758,23920,5860.00
1759,23920,5863.33
1760,23936,5866.67
1761,23960,5870.00
1762,23992,5873.33
1763,24028,5876.67
1764,24064,5880.00
1765,24096,5883.33
1766,24128,5886.67
1767,24156,5890.00
1768,24184,5893.33
1769,24208,5896.67
1770,24232,5900.00
1771,24256,5903.33
1772,24276,5906.67
1773,24300,5910.00
1774,24316,5913.33
1775,24332,5916.67
1776,24352,5920.00
1777,24376,5923.33
1778,24372,5926.67
1779,24312,5930.00
1780,24180,5933.33
1781,24012,5936.67
1782,23852,5940.00
1783,23736,5943.33
1784,23684,5946.67
1785,23676,5950.00
1786,23688,5953.33
1787,23724,5956.67
1788,23764,5960.00
1789,23808,5963.33
1790,23852,5966.67
1791,23892,5970.00
1792,23932,5973.33
1793,23952,5976.67
1794,23956,5980.00
1795,23940,5983.33
1796,23924,5986.67
1797,23912,5990.00
1798,23908,5993.33
1799,23920,5996.67
1800,23944,6000.00
1801,23968,6003.33
1802,23996,6006.67
1803,24028,6010.00
1804,24060,6013.33
1805,24088,6016.67
1806,24120,6020.00
1807,24152,6023.33
1808,24188,6026.67
1809,24216,6030.00
1810,24240,6033.33
1811,24256,6036.67
1812,24272,6040.00
1813,24284,6043.33
1814,24300,6046.67
1815,24312,6050.00
1816,24332,6053.33
1817,24352,6056.67
1818,24340,6060.00
1819,24252,6063.33
1820,24096,6066.67
1821,23908,6070.00
1822,23740,6073.33
1823,23636,6076.67
1824,23592,6080.00
1825,23592,6083.33
1826,23624,6086.67
1827,23668,6090.00
1828,23704,6093.33
1829,23736,6096.67
1830,23760,6100.00
1831,23800,6103.33
1832,23828,6106.67
1833,23856,6110.00
1834,23880,6113.33
1835,23888,6116.67
1836,23888,6120.00
1837,23892,6123.33
1838,23896,6126.67
1839,23908,6130.00
1840,23924,6133.33
1841,23956,6136.67
1842,23988,6140.00
1843,24028,6143.33
1844,24072,6146.67
1845,24116,6150.00
1846,24156,6153.33
1847,24188,6156.67
1848,24224,6160.00
1849,24248,6163.33
1850,24272,6166.67
1851,24296,6170.00
1852,24324,6173.33
1853,24344,6176.67
1854,24364,6180.00
1855,24384,6183.33
1856,24404,6186.67
1857,24424,6190.00
1858,24428,6193.33
1859,24384,6196.67
1860,24252,6200.00
1861,24072,6203.33
1862,23888,6206.67
1863,23748,6210.00
1864,23660,6213.33
1865,23632,6216.67
1866,23636,6220.00
1867,23656,6223.33
1868,23680,6226.67
1869,23700,6230.00
1870,23716,6233.33
1871,23744,6236.67
1872,23776,6240.00
1873,23812,6243.33
1874,23836,6246.67
1875,23844,6250.00
1876,23844,6253.33
1877,23840,6256.67
1878,23832,6260.00
1879,23832,6263.33
1880,23848,6266.67
1881,23872,6270.00
1882,23900,6273.33
1883,23932,6276.67
1884,23972,6280.00
1885,24004,6283.33
1886,24036,6286.67
1887,24068,6290.00
1888,24096,6293.33
1889,24124,6296.67
1890,24152,6300.00
1891,24180,6303.33
1892,24208,6306.67
1893,24224,6310.00
1894,24244,6313.33
1895,24260,6316.67
1896,24280,6320.00
1897,24300,6323.33
1898,24324,6326.67
1899,24348,6330.00
1900,24372,6333.33
1901,24396,6336.67
1902,24412,6340.00
1903,24440,6343.33
1904,24456,6346.67
1905,24428,6350.00
1906,24312,6353.33
1907,24132,6356.67
1908,23932,6360.00
1909,23760,6363.33
1910,23656,6366.67
1911,23608,6370.00
1912,23604,6373.33
1913,23628,6376.67
1914,23656,6380.00
1915,23684,6383.33
1916,23704,6386.67
1917,23728,6390.00
1918,23760,6393.33
1919,23796,6396.67
1920,23828,6400.00
1921,23836,6403.33
1922,23840,6406.67
1923,23832,6410.00
1924,23828,6413.33
1925,23832,6416.67
1926,23848,6420.00
1927,23872,6423.33
1928,23900,6426.67
1929,23928,6430.00
1930,23960,6433.33
1931,23996,6436.67
1932,24024,6440.00
1933,24060,6443.33
1934,24088,6446.67
1935,24116,6450.00
1936,24144,6453.33
1937,24176,6456.67
1938,24196,6460.00
1939,24212,6463.33
1940,24228,6466.67
1941,24244,6470.00
1942,24264,6473.33
1943,24272,6476.67
1944,24296,6480.00
1945,24316,6483.33
1946,24336,6486.67
1947,24360,6490.00
1948,24392,6493.33
1949,24412,6496.67
1950,24420,6500.00
1951,24352,6503.33
1952,24204,6506.67
1953,24016,6510.00
1954,23824,6513.33
1955,23696,6516.67
1956,23628,6520.00
1957,23616,6523.33
1958,23628,6526.67
1959,23664,6530.00
1960,23692,6533.33
1961,23716,6536.67
1962,23744,6540.00
1963,23776,6543.33
1964,23808,6546.67
1965,23836,6550.00
1966,23852,6553.33
1967,23852,6556.67
1968,23836,6560.00
1969,23824,6563.33
1970,23820,6566.67
1971,23820,6570.00
1972,23832,6573.33
1973,23860,6576.67
1974,23892,6580.00
1975,23924,6583.33
1976,23960,6586.67
1977,23996,6590.00
1978,24032,6593.33
1979,24060,6596.67
1980,24088,6600.00
1981,24112,6603.33
1982,24132,6606.67
1983,24156,6610.00
1984,24176,6613.33
1985,24196,6616.67
1986,24212,6620.00
1987,24232,6623.33
1988,24248,6626.67
1989,24264,6630.00
1990,24288,6633.33
1991,24312,6636.67
1992,24300,6640.00
1993,24216,6643.33
1994,24064,6646.67
1995,23884,6650.00
1996,23728,6653.33
1997,23620,6656.67
1998,23576,6660.00
1999,23588,6663.33
2000,23620,6666.67
2001,23660,6670.00
2002,23696,6673.33
2003,23728,6676.67
2004,23768,6680.00
2005,23808,6683.33
2006,23836,6686.67
2007,23852,6690.00
2008,23860,6693.33
2009,23852,6696.67
2010,23840,6700.00
2011,23828,6703.33
2012,23828,6706.67
2013,23844,6710.00
2014,23860,6713.33
2015,23888,6716.67
2016,23920,6720.00
2017,23952,6723.33
2018,23988,6726.67
2019,24020,6730.00
2020,24052,6733.33
2021,24080,6736.67
2022,24100,6740.00
2023,24124,6743.33
2024,24148,6746.67
2025,24164,6750.00
2026,24184,6753.33
2027,24200,6756.67
2028,24220,6760.00
2029,24228,6763.33
2030,24244,6766.67
2031,24264,6770.00
2032,24284,6773.33
2033,24288,6776.67
2034,24232,6780.00
2035,24092,6783.33
2036,23904,6786.67
2037,23712,6790.00
2038,23576,6793.33
2039,23504,6796.67
2040,23488,6800.00
2041,23508,6803.33
2042,23548,6806.67
2043,23580,6810.00
2044,23608,6813.33
2045,23640,6816.67
2046,23672,6820.00
2047,23708,6823.33
2048,23740,6826.67
2049,23756,6830.00
2050,23768,6833.33
2051,23764,6836.67
2052,23760,6840.00
2053,23756,6843.33
2054,23768,6846.67
2055,23784,6850.00
2056,23812,6853.33
2057,23844,6856.67
2058,23876,6860.00
2059,23912,6863.33
2060,23936,6866.67
2061,23972,6870.00
2062,23996,6873.33
2063,24024,6876.67
2064,24048,6880.00
2065,24068,6883.33
2066,24084,6886.67
2067,24096,6890.00
2068,24112,6893.33
2069,24124,6896.67
2070,24140,6900.00
2071,24156,6903.33
2072,24168,6906.67
2073,24188,6910.00
2074,24212,6913.33
2075,24228,6916.67
2076,24212,6920.00
2077,24112,6923.33
2078,23944,6926.67
2079,23752,6930.00
2080,23592,6933.33
2081,23500,6936.67
2082,23468,6940.00
2083,23480,6943.33
2084,23516,6946.67
2085,23556,6950.00
2086,23592,6953.33
2087,23616,6956.67
2088,23644,6960.00
2089,23680,6963.33
2090,23716,6966.67
2091,23732,6970.00
2092,23740,6973.33
2093,23736,6976.67
2094,23728,6980.00
2095,23720,6983.33
2096,23728,6986.67
2097,23740,6990.00
2098,23768,6993.33
2099,23804,6996.67
2100,23844,7000.00
2101,23888,7003.33
2102,23932,7006.67
2103,23976,7010.00
2104,24008,7013.33
2105,24044,7016.67
2106,24072,7020.00
2107,24100,7023.33
2108,24124,7026.67
2109,24144,7030.00
2110,24152,7033.33
2111,24168,7036.67
2112,24180,7040.00
2113,24200,7043.33
2114,24220,7046.67
2115,24232,7050.00
2116,24212,7053.33
2117,24124,7056.67
2118,23964,7060.00
2119,23780,7063.33
2120,23624,7066.67
2121,23528,7070.00
2122,23496,7073.33
2123,23504,7076.67
2124,23540,7080.00
2125,23580,7083.33
2126,23616,7086.67
2127,23652,7090.00
2128,23696,7093.33
2129,23732,7096.67
2130,23768,7100.00
2131,23788,7103.33
2132,23792,7106.67
2133,23780,7110.00
2134,23768,7113.33
2135,23760,7116.67
2136,23756,7120.00
2137,23776,7123.33
2138,23800,7126.67
2139,23828,7130.00
2140,23864,7133.33
2141,23904,7136.67
2142,23944,7140.00
2143,23984,7143.33
2144,24016,7146.67
2145,24048,7150.00
2146,24076,7153.33
2147,24096,7156.67
2148,24124,7160.00
2149,24144,7163.33
2150,24164,7166.67
2151,24184,7170.00
2152,24204,7173.33
2153,24224,7176.67
2154,24248,7180.00
2155,24276,7183.33
2156,24284,7186.67
2157,24232,7190.00
2158,24084,7193.33
2159,23892,7196.67
2160,23704,7200.00
2161,23564,7203.33
2162,23504,7206.67
2163,23492,7210.00
2164,23512,7213.33
2165,23544,7216.67
2166,23580,7220.00
2167,23604,7223.33
2168,23628,7226.67
2169,23652,7230.00
2170,23688,7233.33
2171,23716,7236.67
2172,23732,7240.00
2173,23732,7243.33
2174,23724,7246.67
2175,23716,7250.00
2176,23712,7253.33
2177,23712,7256.67
2178,23728,7260.00
2179,23752,7263.33
2180,23784,7266.67
2181,23824,7270.00
2182,23868,7273.33
2183,23904,7276.67
2184,23944,7280.00
2185,23976,7283.33
2186,24000,7286.67
2187,24028,7290.00
2188,24044,7293.33
2189,24064,7296.67
2190,24076,7300.00
2191,24092,7303.33
2192,24104,7306.67
2193,24116,7310.00
2194,24132,7313.33
2195,24148,7316.67
2196,24140,7320.00
2197,24044,7323.33
2198,23876,7326.67
2199,23676,7330.00
2200,23500,7333.33
2201,23392,7336.67
2202,23348,7340.00
2203,23356,7343.33
2204,23380,7346.67
2205,23408,7350.00
2206,23440,7353.33
2207,23456,7356.67
2208,23476,7360.00
2209,23504,7363.33
2210,23544,7366.67
2211,23580,7370.00
2212,23608,7373.33
2213,23620,7376.67
2214,23624,7380.00
2215,23616,7383.33
2216,23612,7386.67
2217,23620,7390.00
2218,23640,7393.33
2219,23668,7396.67
2220,23700,7400.00
2221,23732,7403.33
2222,23768,7406.67
2223,23808,7410.00
2224,23844,7413.33
2225,23872,7416.67
2226,23900,7420.00
2227,23916,7423.33
2228,23944,7426.67
2229,23960,7430.00
2230,23976,7433.33
2231,23992,7436.67
2232,24016,7440.00
2233,24036,7443.33
2234,24056,7446.67
2235,24068,7450.00
2236,24092,7453.33
2237,24112,7456.67
2238,24136,7460.00
2239,24156,7463.33
2240,24136,7466.67
2241,24036,7470.00
2242,23852,7473.33
2243,23636,7476.67
2244,23456,7480.00
2245,23352,7483.33
2246,23320,7486.67
2247,23328,7490.00
2248,23356,7493.33
2249,23392,7496.67
2250,23416,7500.00
2251,23440,7503.33
2252,23452,7506.67
2253,23480,7510.00
2254,23520,7513.33
2255,23556,7516.67
2256,23580,7520.00
2257,23596,7523.33
2258,23600,7526.67
2259,23604,7530.00
2260,23608,7533.33
2261,23620,7536.67
2262,23640,7540.00
2263,23676,7543.33
2264,23704,7546.67
2265,23740,7550.00
2266,23784,7553.33
2267,23820,7556.67
2268,23856,7560.00
2269,23888,7563.33
2270,23916,7566.67
2271,23940,7570.00
2272,23968,7573.33
2273,23988,7576.67
2274,24012,7580.00
2275,24032,7583.33
2276,24056,7586.67
2277,24072,7590.00
2278,24096,7593.33
2279,24116,7596.67
2280,24140,7600.00
2281,24160,7603.33
2282,24184,7606.67
2283,24204,7610.00
2284,24232,7613.33
2285,24260,7616.67
2286,24260,7620.00
2287,24184,7623.33
2288,24020,7626.67
2289,23808,7630.00
2290,23608,7633.33
2291,23472,7636.67
2292,23408,7640.00
2293,23404,7643.33
2294,23428,7646.67
2295,23468,7650.00
2296,23496,7653.33
2297,23524,7656.67
2298,23548,7660.00
2299,23576,7663.33
2300,23608,7666.67
2301,23644,7670.00
2302,23672,7673.33
2303,23680,7676.67
2304,23676,7680.00
2305,23668,7683.33
2306,23672,7686.67
2307,23676,7690.00
2308,23692,7693.33
2309,23720,7696.67
2310,23752,7700.00
2311,23788,7703.33
2312,23824,7706.67
2313,23864,7710.00
2314,23896,7713.33
2315,23928,7716.67
2316,23960,7720.00
2317,23988,7723.33
2318,24008,7726.67
2319,24028,7730.00
2320,24040,7733.33
2321,24060,7736.67
2322,24076,7740.00
2323,24092,7743.33
2324,24108,7746.67
2325,24128,7750.00
2326,24148,7753.33
2327,24168,7756.67
2328,24188,7760.00
2329,24212,7763.33
2330,24232,7766.67
2331,24224,7770.00
2332,24128,7773.33
2333,23952,7776.67
2334,23752,7780.00
2335,23572,7783.33
2336,23464,7786.67
2337,23424,7790.00
2338,23432,7793.33
2339,23468,7796.67
2340,23508,7800.00
2341,23552,7803.33
2342,23588,7806.67
2343,23620,7810.00
2344,23656,7813.33
2345,23692,7816.67
2346,23716,7820.00
2347,23728,7823.33
2348,23724,7826.67
2349,23712,7830.00
2350,23700,7833.33
2351,23700,7836.67
2352,23708,7840.00
2353,23732,7843.33
2354,23764,7846.67
2355,23800,7850.00
2356,23844,7853.33
2357,23884,7856.67
2358,23920,7860.00
2359,23948,7863.33
2360,23984,7866.67
2361,24008,7870.00
2362,24032,7873.33
2363,24056,7876.67
2364,24076,7880.00
2365,24100,7883.33
2366,24120,7886.67
2367,24132,7890.00
2368,24152,7893.33
2369,24172,7896.67
2370,24192,7900.00
2371,24216,7903.33
2372,24232,7906.67
2373,24192,7910.00
2374,24060,7913.33
2375,23876,7916.67
2376,23684,7920.00
2377,23540,7923.33
2378,23464,7926.67
2379,23452,7930.00
2380,23480,7933.33
2381,23520,7936.67
2382,23568,7940.00
2383,23604,7943.33
2384,23636,7946.67
2385,23676,7950.00
2386,23712,7953.33
2387,23740,7956.67
2388,23760,7960.00
2389,23764,7963.33
2390,23752,7966.67
2391,23740,7970.00
2392,23736,7973.33
2393,23744,7976.67
2394,23760,7980.00
2395,23784,7983.33
2396,23812,7986.67
2397,23852,7990.00
2398,23892,7993.33
2399,23932,7996.67
2400,23972,8000.00
2401,24004,8003.33
2402,24040,8006.67
2403,24064,8010.00
2404,24088,8013.33
2405,24112,8016.67
2406,24136,8020.00
2407,24156,8023.33
2408,24176,8026.67
2409,24192,8030.00
2410,24208,8033.33
2411,24224,8036.67
2412,24244,8040.00
2413,24268,8043.33
2414,24288,8046.67
2415,24272,8050.00
2416,24176,8053.33
2417,24000,8056.67
2418,23784,8060.00
2419,23600,8063.33
2420,23480,8066.67
2421,23432,8070.00
2422,23428,8073.33
2423,23464,8076.67
2424,23504,8080.00
2425,23544,8083.33
2426,23572,8086.67
2427,23596,8090.00
2428,23632,8093.33
2429,23668,8096.67
2430,23688,8100.00
2431,23704,8103.33
2432,23712,8106.67
2433,23700,8110.00
2434,23692,8113.33
2435,23696,8116.67
2436,23704,8120.00
2437,23724,8123.33
2438,23748,8126.67
2439,23780,8130.00
2440,23820,8133.33
2441,23856,8136.67
2442,23892,8140.00
2443,23924,8143.33
2444,23960,8146.67
2445,23992,8150.00
2446,24020,8153.33
2447,24044,8156.67
2448,24068,8160.00
2449,24092,8163.33
2450,24112,8166.67
2451,24132,8170.00
2452,24148,8173.33
2453,24168,8176.67
2454,24192,8180.00
2455,24212,8183.33
2456,24240,8186.67
2457,24256,8190.00
2458,24208,8193.33
2459,24076,8196.67
2460,23876,8200.00
2461,23668,8203.33
2462,23508,8206.67
2463,23424,8210.00
2464,23396,8213.33
2465,23416,8216.67
2466,23452,8220.00
2467,23492,8223.33
2468,23528,8226.67
2469,23548,8230.00
2470,23576,8233.33
2471,23616,8236.67
2472,23648,8240.00
2473,23676,8243.33
2474,23688,8246.67
2475,23688,8250.00
2476,23684,8253.33
2477,23684,8256.67
2478,23684,8260.00
2479,23696,8263.33
2480,23724,8266.67
2481,23752,8270.00
2482,23792,8273.33
2483,23828,8276.67
2484,23868,8280.00
2485,23908,8283.33
2486,23944,8286.67
2487,23972,8290.00
2488,24000,8293.33
2489,24024,8296.67
2490,24056,8300.00
2491,24076,8303.33
2492,24096,8306.67
2493,24116,8310.00
2494,24136,8313.33
2495,24160,8316.67
2496,24180,8320.00
2497,24200,8323.33
2498,24224,8326.67
2499,24244,8330.00
2500,24272,8333.33
2501,24300,8336.67
2502,24296,8340.00
2503,24212,8343.33
2504,24044,8346.67
2505,23832,8350.00
2506,23636,8353.33
2507,23496,8356.67
2508,23432,8360.00
2509,23424,8363.33
2510,23452,8366.67
2511,23492,8370.00
2512,23528,8373.33
2513,23560,8376.67
2514,23580,8380.00
2515,23620,8383.33
2516,23656,8386.67
2517,23688,8390.00
2518,23700,8393.33
2519,23704,8396.67
2520,23696,8400.00
2521,23692,8403.33
2522,23688,8406.67
2523,23696,8410.00
2524,23712,8413.33
2525,23740,8416.67
2526,23768,8420.00
2527,23804,8423.33
2528,23840,8426.67
2529,23872,8430.00
2530,23908,8433.33
2531,23940,8436.67
2532,23968,8440.00
2533,23992,8443.33
2534,24012,8446.67
2535,24032,8450.00
2536,24052,8453.33
2537,24068,8456.67
2538,24084,8460.00
2539,24100,8463.33
2540,24116,8466.67
2541,24136,8470.00
2542,24156,8473.33
2543,24180,8476.67
2544,24180,8480.00
2545,24116,8483.33
2546,23968,8486.67
2547,23772,8490.00
2548,23596,8493.33
2549,23476,8496.67
2550,23424,8500.00
2551,23428,8503.33
2552,23460,8506.67
2553,23504,8510.00
2554,23544,8513.33
2555,23584,8516.67
2556,23624,8520.00
2557,23668,8523.33
2558,23704,8526.67
2559,23720,8530.00
2560,23720,8533.33
2561,23708,8536.67
2562,23692,8540.00
2563,23684,8543.33
2564,23688,8546.67
2565,23700,8550.00
2566,23724,8553.33
2567,23760,8556.67
2568,23796,8560.00
2569,23832,8563.33
2570,23872,8566.67
2571,23912,8570.00
2572,23956,8573.33
2573,23984,8576.67
2574,24016,8580.00
2575,24032,8583.33
2576,24040,8586.67
2577,24044,8590.00
2578,24044,8593.33
2579,24044,8596.67
2580,24048,8600.00
2581,24052,8603.33
2582,24064,8606.67
2583,24060,8610.00
2584,24004,8613.33
2585,23856,8616.67
2586,23664,8620.00
2587,23476,8623.33
2588,23340,8626.67
2589,23280,8630.00
2590,23276,8633.33
2591,23304,8636.67
2592,23344,8640.00
2593,23380,8643.33
2594,23408,8646.67
2595,23444,8650.00
2596,23484,8653.33
2597,23520,8656.67
2598,23540,8660.00
2599,23540,8663.33
2600,23532,8666.67
2601,23516,8670.00
2602,23500,8673.33
2603,23496,8676.67
2604,23504,8680.00
2605,23528,8683.33
2606,23560,8686.67
2607,23592,8690.00
2608,23632,8693.33
2609,23664,8696.67
2610,23704,8700.00
2611,23736,8703.33
2612,23772,8706.67
2613,23800,8710.00
2614,23828,8713.33
2615,23852,8716.67
2616,23876,8720.00
2617,23896,8723.33
2618,23916,8726.67
2619,23936,8730.00
2620,23956,8733.33
2621,23972,8736.67
2622,23988,8740.00
2623,24000,8743.33
2624,23948,8746.67
2625,23808,8750.00
2626,23612,8753.33
2627,23416,8756.67
2628,23284,8760.00
2629,23212,8763.33
2630,23200,8766.67
2631,23216,8770.00
2632,23236,8773.33
2633,23264,8776.67
2634,23276,8780.00
2635,23292,8783.33
2636,23316,8786.67
2637,23352,8790.00
2638,23384,8793.33
2639,23412,8796.67
2640,23424,8800.00
2641,23428,8803.33
2642,23428,8806.67
2643,23428,8810.00
2644,23436,8813.33
2645,23460,8816.67
2646,23492,8820.00
2647,23528,8823.33
2648,23568,8826.67
2649,23604,8830.00
2650,23644,8833.33
2651,23680,8836.67
2652,23716,8840.00
2653,23752,8843.33
2654,23784,8846.67
2655,23808,8850.00
2656,23828,8853.33
2657,23852,8856.67
2658,23872,8860.00
2659,23896,8863.33
2660,23916,8866.67
2661,23940,8870.00
2662,23944,8873.33
2663,23876,8876.67
2664,23724,8880.00
2665,23536,8883.33
2666,23364,8886.67
2667,23252,8890.00
2668,23208,8893.33
2669,23212,8896.67
2670,23236,8900.00
2671,23268,8903.33
2672,23300,8906.67
2673,23316,8910.00
2674,23332,8913.33
2675,23360,8916.67
2676,23396,8920.00
2677,23424,8923.33
2678,23444,8926.67
2679,23452,8930.00
2680,23448,8933.33
2681,23440,8936.67
2682,23432,8940.00
2683,23436,8943.33
2684,23456,8946.67
2685,23484,8950.00
2686,23520,8953.33
2687,23556,8956.67
2688,23600,8960.00
2689,23644,8963.33
2690,23680,8966.67
2691,23712,8970.00
2692,23744,8973.33
2693,23768,8976.67
2694,23800,8980.00
2695,23820,8983.33
2696,23844,8986.67
2697,23868,8990.00
2698,23888,8993.33
2699,23908,8996.67
2700,23928,9000.00
2701,23936,9003.33
2702,23880,9006.67
2703,23744,9010.00
2704,23552,9013.33
2705,23368,9016.67
2706,23252,9020.00
2707,23204,9023.33
2708,23204,9026.67
2709,23228,9030.00
2710,23268,9033.33
2711,23308,9036.67
2712,23328,9040.00
2713,23352,9043.33
2714,23392,9046.67
2715,23436,9050.00
2716,23464,9053.33
2717,23488,9056.67
2718,23488,9060.00
2719,23480,9063.33
2720,23472,9066.67
2721,23476,9070.00
2722,23492,9073.33
2723,23520,9076.67
2724,23552,9080.00
2725,23588,9083.33
2726,23624,9086.67
2727,23660,9090.00
2728,23696,9093.33
2729,23724,9096.67
2730,23752,9100.00
2731,23776,9103.33
2732,23804,9106.67
2733,23824,9110.00
2734,23836,9113.33
2735,23856,9116.67
2736,23868,9120.00
2737,23880,9123.33
2738,23900,9126.67
2739,23916,9130.00
2740,23876,9133.33
2741,23752,9136.67
2742,23564,9140.00
2743,23384,9143.33
2744,23252,9146.67
2745,23200,9150.00
2746,23196,9153.33
2747,23224,9156.67
2748,23268,9160.00
2749,23308,9163.33
2750,23340,9166.67
2751,23376,9170.00
2752,23416,9173.33
2753,23452,9176.67
2754,23480,9180.00
2755,23496,9183.33
2756,23504,9186.67
2757,23500,9190.00
2758,23496,9193.33
2759,23496,9196.67
2760,23512,9200.00
2761,23532,9203.33
2762,23560,9206.67
2763,23592,9210.00
2764,23624,9213.33
2765,23660,9216.67
2766,23696,9220.00
2767,23724,9223.33
2768,23756,9226.67
2769,23784,9230.00
2770,23804,9233.33
2771,23828,9236.67
2772,23844,9240.00
2773,23864,9243.33
2774,23876,9246.67
2775,23892,9250.00
2776,23912,9253.33
2777,23932,9256.67
2778,23956,9260.00
2779,23980,9263.33
2780,23960,9266.67
2781,23864,9270.00
2782,23680,9273.33
2783,23472,9276.67
2784,23300,9280.00
2785,23212,9283.33
2786,23184,9286.67
2787,23200,9290.00
2788,23232,9293.33
2789,23268,9296.67
2790,23296,9300.00
2791,23312,9303.33
2792,23336,9306.67
2793,23372,9310.00
2794,23408,9313.33
2795,23436,9316.67
2796,23460,9320.00
2797,23468,9323.33
2798,23460,9326.67
2799,23456,9330.00
2800,23456,9333.33
2801,23472,9336.67
2802,23500,9340.00
2803,23528,9343.33
2804,23564,9346.67
2805,23604,9350.00
2806,23644,9353.33
2807,23672,9356.67
2808,23700,9360.00
2809,23728,9363.33
2810,23752,9366.67
2811,23776,9370.00
2812,23796,9373.33
2813,23820,9376.67
2814,23840,9380.00
2815,23868,9383.33
2816,23892,9386.67
2817,23908,9390.00
2818,23932,9393.33
2819,23952,9396.67
2820,23976,9400.00
2821,24000,9403.33
2822,24024,9406.67
2823,24052,9410.00
2824,24068,9413.33
2825,24008,9416.67
2826,23848,9420.00
2827,23628,9423.33
2828,23416,9426.67
2829,23272,9430.00
2830,23212,9433.33
2831,23208,9436.67
2832,23236,9440.00
2833,23276,9443.33
2834,23304,9446.67
2835,23328,9450.00
2836,23344,9453.33
2837,23372,9456.67
2838,23416,9460.00
2839,23448,9463.33
2840,23476,9466.67
2841,23500,9470.00
2842,23504,9473.33
2843,23504,9476.67
2844,23508,9480.00
2845,23520,9483.33
2846,23536,9486.67
2847,23568,9490.00
2848,23596,9493.33
2849,23636,9496.67
2850,23672,9500.00
2851,23712,9503.33
2852,23748,9506.67
2853,23780,9510.00
2854,23812,9513.33
2855,23836,9516.67
2856,23864,9520.00
2857,23892,9523.33
2858,23912,9526.67
2859,23932,9530.00
2860,23960,9533.33
2861,23984,9536.67
2862,24004,9540.00
2863,24024,9543.33
2864,24052,9546.67
2865,24076,9550.00
2866,24100,9553.33
2867,24128,9556.67
2868,24156,9560.00
2869,24184,9563.33
2870,24212,9566.67
2871,24236,9570.00
2872,24264,9573.33
2873,24292,9576.67
2874,24300,9580.00
2875,24236,9583.33
2876,24072,9586.67
2877,23848,9590.00
2878,23620,9593.33
2879,23452,9596.67
2880,23360,9600.00
2881,23340,9603.33
2882,23356,9606.67
2883,23392,9610.00
2884,23432,9613.33
2885,23460,9616.67
2886,23484,9620.00
2887,23516,9623.33
2888,23552,9626.67
2889,23584,9630.00
2890,23604,9633.33
2891,23612,9636.67
2892,23612,9640.00
2893,23600,9643.33
2894,23592,9646.67
2895,23596,9650.00
2896,23612,9653.33
2897,23632,9656.67
2898,23660,9660.00
2899,23692,9663.33
2900,23732,9666.67
2901,23772,9670.00
2902,23808,9673.33
2903,23844,9676.67
2904,23876,9680.00
2905,23908,9683.33
2906,23944,9686.67
2907,23968,9690.00
2908,23984,9693.33
2909,24004,9696.67
2910,24020,9700.00
2911,24040,9703.33
2912,24056,9706.67
2913,24080,9710.00
2914,24100,9713.33
2915,24124,9716.67
2916,24148,9720.00
2917,24168,9723.33
2918,24196,9726.67
2919,24212,9730.00
2920,24176,9733.33
2921,24048,9736.67
2922,23852,9740.00
2923,23648,9743.33
2924,23484,9746.67
2925,23388,9750.00
2926,23364,9753.33
2927,23384,9756.67
2928,23424,9760.00
2929,23472,9763.33
2930,23516,9766.67
2931,23556,9770.00
2932,23604,9773.33
2933,23648,9776.67
2934,23680,9780.00
2935,23696,9783.33
2936,23696,9786.67
2937,23680,9790.00
2938,23664,9793.33
2939,23652,9796.67
2940,23656,9800.00
2941,23672,9803.33
2942,23700,9806.67
2943,23732,9810.00
2944,23768,9813.33
2945,23804,9816.67
2946,23844,9820.00
2947,23884,9823.33
2948,23916,9826.67
2949,23948,9830.00
2950,23980,9833.33
2951,24004,9836.67
2952,24028,9840.00
2953,24044,9843.33
2954,24064,9846.67
2955,24088,9850.00
2956,24108,9853.33
2957,24128,9856.67
2958,24148,9860.00
2959,24168,9863.33
2960,24188,9866.67
2961,24208,9870.00
2962,24224,9873.33
2963,24184,9876.67
2964,24064,9880.00
2965,23868,9883.33
2966,23660,9886.67
2967,23484,9890.00
2968,23380,9893.33
2969,23344,9896.67
2970,23360,9900.00
2971,23396,9903.33
2972,23444,9906.67
2973,23488,9910.00
2974,23528,9913.33
2975,23564,9916.67
2976,23608,9920.00
2977,23648,9923.33
2978,23672,9926.67
2979,23684,9930.00
2980,23680,9933.33
2981,23668,9936.67
2982,23664,9940.00
2983,23668,9943.33
2984,23680,9946.67
2985,23704,9950.00
2986,23732,9953.33
2987,23772,9956.67
2988,23804,9960.00
2989,23840,9963.33
2990,23876,9966.67
2991,23912,9970.00
2992,23944,9973.33
2993,23972,9976.67
2994,24004,9980.00
2995,24032,9983.33
2996,24056,9986.67
2997,24076,9990.00
2998,24092,9993.33
2999,24112,9996.67
3000,24128,10000.00
3001,24144,10003.33
3002,24164,10006.67
3003,24180,10010.00
3004,24204,10013.33
3005,24196,10016.67
3006,24104,10020.00
3007,23924,10023.33
3008,23708,10026.67
3009,23508,10030.00
3010,23376,10033.33
3011,23308,10036.67
3012,23304,10040.00
3013,23340,10043.33
3014,23376,10046.67
3015,23416,10050.00
3016,23448,10053.33
3017,23476,10056.67
3018,23508,10060.00
3019,23552,10063.33
3020,23580,10066.67
3021,23600,10070.00
3022,23608,10073.33
3023,23604,10076.67
3024,23596,10080.00
3025,23596,10083.33
3026,23604,10086.67
3027,23620,10090.00
3028,23652,10093.33
3029,23684,10096.67
3030,23724,10100.00
3031,23760,10103.33
3032,23804,10106.67
3033,23844,10110.00
3034,23872,10113.33
3035,23908,10116.67
3036,23940,10120.00
3037,23972,10123.33
3038,23992,10126.67
3039,24016,10130.00
3040,24036,10133.33
3041,24056,10136.67
3042,24076,10140.00
3043,24096,10143.33
3044,24116,10146.67
3045,24140,10150.00
3046,24160,10153.33
3047,24152,10156.67
3048,24060,10160.00
3049,23884,10163.33
3050,23668,10166.67
3051,23480,10170.00
3052,23348,10173.33
3053,23288,10176.67
3054,23284,10180.00
3055,23316,10183.33
3056,23352,10186.67
3057,23392,10190.00
3058,23420,10193.33
3059,23444,10196.67
3060,23480,10200.00
3061,23512,10203.33
3062,23540,10206.67
3063,23552,10210.00
3064,23556,10213.33
3065,23548,10216.67
3066,23540,10220.00
3067,23536,10223.33
3068,23544,10226.67
3069,23560,10230.00
3070,23584,10233.33
3071,23608,10236.67
3072,23644,10240.00
3073,23684,10243.33
3074,23720,10246.67
3075,23756,10250.00
3076,23788,10253.33
3077,23816,10256.67
3078,23844,10260.00
3079,23864,10263.33
3080,23884,10266.67
3081,23904,10270.00
3082,23928,10273.33
3083,23944,10276.67
3084,23960,10280.00
3085,23980,10283.33
3086,24000,10286.67
3087,24024,10290.00
3088,24040,10293.33
3089,24008,10296.67
3090,23880,10300.00
3091,23696,10303.33
3092,23488,10306.67
3093,23336,10310.00
3094,23252,10313.33
3095,23228,10316.67
3096,23240,10320.00
3097,23272,10323.33
3098,23312,10326.67
3099,23344,10330.00
3100,23376,10333.33
3101,23416,10336.67
3102,23460,10340.00
3103,23488,10343.33
3104,23504,10346.67
3105,23500,10350.00
3106,23484,10353.33
3107,23464,10356.67
3108,23456,10360.00
3109,23456,10363.33
3110,23472,10366.67
3111,23500,10370.00
3112,23540,10373.33
3113,23584,10376.67
3114,23628,10380.00
3115,23672,10383.33
3116,23716,10386.67
3117,23756,10390.00
3118,23788,10393.33
3119,23812,10396.67
3120,23836,10400.00
3121,23856,10403.33
3122,23876,10406.67
3123,23896,10410.00
3124,23920,10413.33
3125,23944,10416.67
3126,23968,10420.00
3127,23992,10423.33
3128,23992,10426.67
3129,23916,10430.00
3130,23760,10433.33
3131,23572,10436.67
3132,23404,10440.00
3133,23300,10443.33
3134,23264,10446.67
3135,23276,10450.00
3136,23312,10453.33
3137,23348,10456.67
3138,23392,10460.00
3139,23432,10463.33
3140,23472,10466.67
3141,23516,10470.00
3142,23552,10473.33
3143,23576,10476.67
3144,23572,10480.00
3145,23564,10483.33
3146,23548,10486.67
3147,23536,10490.00
3148,23528,10493.33
3149,23532,10496.67
3150,23548,10500.00
3151,23572,10503.33
3152,23604,10506.67
3153,23636,10510.00
3154,23668,10513.33
3155,23704,10516.67
3156,23740,10520.00
3157,23772,10523.33
3158,23800,10526.67
3159,23812,10530.00
3160,23828,10533.33
3161,23832,10536.67
3162,23840,10540.00
3163,23848,10543.33
3164,23856,10546.67
3165,23868,10550.00
3166,23884,10553.33
3167,23904,10556.67
3168,23920,10560.00
3169,23904,10563.33
3170,23796,10566.67
3171,23592,10570.00
3172,23364,10573.33
3173,23168,10576.67
3174,23056,10580.00
3175,23012,10583.33
3176,23024,10586.67
3177,23064,10590.00
3178,23108,10593.33
3179,23128,10596.67
3180,23132,10600.00
3181,23132,10603.33
3182,23148,10606.67
3183,23180,10610.00
3184,23220,10613.33
3185,23244,10616.67
3186,23252,10620.00
3187,23252,10623.33
3188,23252,10626.67
3189,23260,10630.00
3190,23280,10633.33
3191,23312,10636.67
3192,23336,10640.00
3193,23364,10643.33
3194,23404,10646.67
3195,23444,10650.00
3196,23488,10653.33
3197,23528,10656.67
3198,23564,10660.00
3199,23596,10663.33
3200,23620,10666.67
3201,23644,10670.00
3202,23664,10673.33
3203,23680,10676.67
3204,23700,10680.00
3205,23716,10683.33
3206,23740,10686.67
3207,23752,10690.00
3208,23720,10693.33
3209,23596,10696.67
3210,23412,10700.00
3211,23216,10703.33
3212,23080,10706.67
3213,23012,10710.00
3214,23000,10713.33
3215,23016,10716.67
3216,23044,10720.00
3217,23080,10723.33
3218,23108,10726.67
3219,23128,10730.00
3220,23156,10733.33
3221,23192,10736.67
3222,23228,10740.00
3223,23260,10743.33
3224,23272,10746.67
3225,23268,10750.00
3226,23264,10753.33
3227,23260,10756.67
3228,23268,10760.00
3229,23284,10763.33
3230,23312,10766.67
3231,23340,10770.00
3232,23372,10773.33
3233,23408,10776.67
3234,23448,10780.00
3235,23488,10783.33
3236,23520,10786.67
3237,23552,10790.00
3238,23576,10793.33
3239,23600,10796.67
3240,23620,10800.00
3241,23640,10803.33
3242,23660,10806.67
3243,23676,10810.00
3244,23700,10813.33
3245,23712,10816.67
3246,23680,10820.00
3247,23560,10823.33
3248,23372,10826.67
3249,23184,10830.00
3250,23052,10833.33
3251,22992,10836.67
3252,22992,10840.00
3253,23020,10843.33
3254,23060,10846.67
3255,23100,10850.00
3256,23140,10853.33
3257,23172,10856.67
3258,23208,10860.00
3259,23252,10863.33
3260,23280,10866.67
3261,23300,10870.00
3262,23304,10873.33
3263,23296,10876.67
3264,23284,10880.00
3265,23280,10883.33
3266,23284,10886.67
3267,23300,10890.00
3268,23328,10893.33
3269,23360,10896.67
3270,23388,10900.00
3271,23424,10903.33
3272,23460,10906.67
3273,23492,10910.00
3274,23520,10913.33
3275,23544,10916.67
3276,23568,10920.00
3277,23588,10923.33
3278,23608,10926.67
3279,23628,10930.00
3280,23648,10933.33
3281,23672,10936.67
3282,23676,10940.00
3283,23604,10943.33
3284,23460,10946.67
3285,23276,10950.00
3286,23120,10953.33
3287,23028,10956.67
3288,23004,10960.00
3289,23032,10963.33
3290,23076,10966.67
3291,23132,10970.00
3292,23176,10973.33
3293,23224,10976.67
3294,23264,10980.00
3295,23316,10983.33
3296,23348,10986.67
3297,23368,10990.00
3298,23372,10993.33
3299,23364,10996.67
3300,23348,11000.00
3301,23336,11003.33
3302,23340,11006.67
3303,23360,11010.00
3304,23392,11013.33
3305,23428,11016.67
3306,23468,11020.00
3307,23508,11023.33
3308,23544,11026.67
3309,23572,11030.00
3310,23600,11033.33
3311,23616,11036.67
3312,23632,11040.00
3313,23652,11043.33
3314,23672,11046.67
3315,23684,11050.00
3316,23704,11053.33
3317,23700,11056.67
3318,23620,11060.00
3319,23464,11063.33
3320,23268,11066.67
3321,23096,11070.00
3322,22996,11073.33
3323,22964,11076.67
3324,22980,11080.00
3325,23020,11083.33
3326,23068,11086.67
3327,23112,11090.00
3328,23152,11093.33
3329,23192,11096.67
3330,23240,11100.00
3331,23272,11103.33
3332,23308,11106.67
3333,23328,11110.00
3334,23340,11113.33
3335,23336,11116.67
3336,23332,11120.00
3337,23344,11123.33
3338,23360,11126.67
3339,23384,11130.00
3340,23408,11133.33
3341,23444,11136.67
3342,23476,11140.00
3343,23512,11143.33
3344,23548,11146.67
3345,23584,11150.00
3346,23616,11153.33
3347,23648,11156.67
3348,23684,11160.00
3349,23712,11163.33
3350,23736,11166.67
3351,23704,11170.00
3352,23600,11173.33
3353,23440,11176.67
3354,23272,11180.00
3355,23164,11183.33
3356,23116,11186.67
3357,23124,11190.00
3358,23144,11193.33
3359,23172,11196.67
3360,23208,11200.00
3361,23228,11203.33
3362,23256,11206.67
3363,23292,11210.00
3364,23332,11213.33
3365,23364,11216.67
3366,23388,11220.00
3367,23400,11223.33
3368,23400,11226.67
3369,23400,11230.00
3370,23400,11233.33
3371,23412,11236.67
3372,23428,11240.00
3373,23460,11243.33
3374,23492,11246.67
3375,23528,11250.00
3376,23564,11253.33
3377,23600,11256.67
3378,23640,11260.00
3379,23672,11263.33
3380,23700,11266.67
3381,23724,11270.00
3382,23744,11273.33
3383,23768,11276.67
3384,23792,11280.00
3385,23796,11283.33
3386,23736,11286.67
3387,23608,11290.00
3388,23432,11293.33
3389,23272,11296.67
3390,23164,11300.00
3391,23120,11303.33
3392,23124,11306.67
3393,23148,11310.00
3394,23180,11313.33
3395,23208,11316.67
3396,23232,11320.00
3397,23252,11323.33
3398,23284,11326.67
3399,23324,11330.00
3400,23356,11333.33
3401,23380,11336.67
3402,23392,11340.00
3403,23392,11343.33
3404,23388,11346.67
3405,23388,11350.00
3406,23404,11353.33
3407,23424,11356.67
3408,23448,11360.00
3409,23484,11363.33
3410,23520,11366.67
3411,23564,11370.00
3412,23600,11373.33
3413,23640,11376.67
3414,23668,11380.00
3415,23696,11383.33
3416,23724,11386.67
3417,23748,11390.00
3418,23768,11393.33
3419,23784,11396.67
3420,23804,11400.00
3421,23828,11403.33
3422,23852,11406.67
3423,23876,11410.00
3424,23868,11413.33
3425,23784,11416.67
3426,23624,11420.00
3427,23440,11423.33
3428,23280,11426.67
3429,23188,11430.00
3430,23152,11433.33
3431,23164,11436.67
3432,23200,11440.00
3433,23236,11443.33
3434,23264,11446.67
3435,23292,11450.00
3436,23320,11453.33
3437,23364,11456.67
3438,23400,11460.00
3439,23432,11463.33
3440,23460,11466.67
3441,23472,11470.00
3442,23472,11473.33
3443,23468,11476.67
3444,23476,11480.00
3445,23488,11483.33
3446,23504,11486.67
3447,23528,11490.00
3448,23556,11493.33
3449,23592,11496.67
3450,23628,11500.00
3451,23668,11503.33
3452,23716,11506.67
3453,23756,11510.00
3454,23788,11513.33
3455,23824,11516.67
3456,23856,11520.00
3457,23876,11523.33
3458,23900,11526.67
3459,23920,11530.00
3460,23944,11533.33
3461,23968,11536.67
3462,23984,11540.00
3463,24004,11543.33
3464,24028,11546.67
3465,24048,11550.00
3466,24072,11553.33
3467,24096,11556.67
3468,24116,11560.00
3469,24136,11563.33
3470,24160,11566.67
3471,24172,11570.00
3472,24128,11573.33
3473,23996,11576.67
3474,23800,11580.00
3475,23592,11583.33
3476,23428,11586.67
3477,23324,11590.00
3478,23292,11593.33
3479,23296,11596.67
3480,23332,11600.00
3481,23376,11603.33
3482,23412,11606.67
3483,23448,11610.00
3484,23488,11613.33
3485,23528,11616.67
3486,23560,11620.00
3487,23576,11623.33
3488,23576,11626.67
3489,23572,11630.00
3490,23564,11633.33
3491,23556,11636.67
3492,23564,11640.00
3493,23584,11643.33
3494,23604,11646.67
3495,23636,11650.00
3496,23668,11653.33
3497,23700,11656.67
3498,23736,11660.00
3499,23776,11663.33
3500,23808,11666.67
3501,23844,11670.00
3502,23876,11673.33
3503,23900,11676.67
3504,23928,11680.00
3505,23952,11683.33
3506,23972,11686.67
3507,23992,11690.00
3508,24008,11693.33
3509,24028,11696.67
3510,24048,11700.00
3511,24072,11703.33
3512,24096,11706.67
3513,24088,11710.00
3514,24012,11713.33
3515,23872,11716.67
3516,23692,11720.00
3517,23528,11723.33
3518,23420,11726.67
3519,23372,11730.00
3520,23376,11733.33
3521,23408,11736.67
3522,23452,11740.00
3523,23500,11743.33
3524,23540,11746.67
3525,23584,11750.00
3526,23632,11753.33
3527,23672,11756.67
3528,23696,11760.00
3529,23704,11763.33
3530,23692,11766.67
3531,23684,11770.00
3532,23672,11773.33
3533,23676,11776.67
3534,23684,11780.00
3535,23708,11783.33
3536,23732,11786.67
3537,23764,11790.00
3538,23800,11793.33
3539,23836,11796.67
3540,23872,11800.00
3541,23908,11803.33
3542,23940,11806.67
3543,23968,11810.00
3544,23996,11813.33
3545,24020,11816.67
3546,24044,11820.00
3547,24068,11823.33
3548,24084,11826.67
3549,24100,11830.00
3550,24120,11833.33
3551,24140,11836.67
3552,24144,11840.00
3553,24092,11843.33
3554,23956,11846.67
3555,23776,11850.00
3556,23592,11853.33
3557,23448,11856.67
3558,23368,11860.00
3559,23348,11863.33
3560,23360,11866.67
3561,23392,11870.00
3562,23432,11873.33
3563,23464,11876.67
3564,23496,11880.00
3565,23528,11883.33
3566,23560,11886.67
3567,23588,11890.00
3568,23612,11893.33
3569,23624,11896.67
3570,23620,11900.00
3571,23612,11903.33
3572,23608,11906.67
3573,23608,11910.00
3574,23620,11913.33
3575,23640,11916.67
3576,23664,11920.00
3577,23692,11923.33
3578,23728,11926.67
3579,23764,11930.00
3580,23804,11933.33
3581,23840,11936.67
3582,23872,11940.00
3583,23908,11943.33
3584,23936,11946.67
3585,23968,11950.00
3586,23996,11953.33
3587,24024,11956.67
3588,24048,11960.00
3589,24068,11963.33
3590,24088,11966.67
3591,24108,11970.00
3592,24116,11973.33
3593,24052,11976.67
3594,23916,11980.00
3595,23732,11983.33
3596,23544,11986.67
3597,23404,11990.00
3598,23332,11993.33
3599,23308,11996.67
3600,23324,12000.00
3601,23356,12003.33
3602,23392,12006.67
3603,23424,12010.00
3604,23448,12013.33
3605,23484,12016.67
3606,23520,12020.00
3607,23552,12023.33
3608,23576,12026.67
3609,23576,12030.00
3610,23572,12033.33
3611,23560,12036.67
3612,23552,12040.00
3613,23556,12043.33
3614,23568,12046.67
3615,23584,12050.00
3616,23612,12053.33
3617,23636,12056.67
3618,23668,12060.00
3619,23704,12063.33
3620,23740,12066.67
3621,23784,12070.00
3622,23820,12073.33
3623,23860,12076.67
3624,23892,12080.00
3625,23924,12083.33
3626,23956,12086.67
3627,23980,12090.00
3628,24000,12093.33
3629,24028,12096.67
3630,24056,12100.00
3631,24076,12103.33
3632,24088,12106.67
3633,24032,12110.00
3634,23884,12113.33
3635,23692,12116.67
3636,23492,12120.00
3637,23344,12123.33
3638,23264,12126.67
3639,23248,12130.00
3640,23268,12133.33
3641,23304,12136.67
3642,23344,12140.00
3643,23372,12143.33
3644,23404,12146.67
3645,23440,12150.00
3646,23472,12153.33
3647,23504,12156.67
3648,23524,12160.00
3649,23528,12163.33
3650,23528,12166.67
3651,23524,12170.00
3652,23524,12173.33
3653,23532,12176.67
3654,23548,12180.00
3655,23572,12183.33
3656,23608,12186.67
3657,23644,12190.00
3658,23676,12193.33
3659,23716,12196.67
3660,23748,12200.00
3661,23780,12203.33
3662,23808,12206.67
3663,23832,12210.00
3664,23860,12213.33
3665,23880,12216.67
3666,23896,12220.00
3667,23908,12223.33
3668,23928,12226.67
3669,23944,12230.00
3670,23956,12233.33
3671,23912,12236.67
3672,23788,12240.00
3673,23608,12243.33
3674,23432,12246.67
3675,23304,12250.00
3676,23240,12253.33
3677,23228,12256.67
3678,23256,12260.00
3679,23300,12263.33
3680,23352,12266.67
3681,23392,12270.00
3682,23432,12273.33
3683,23480,12276.67
3684,23520,12280.00
3685,23552,12283.33
3686,23564,12286.67
3687,23568,12290.00
3688,23556,12293.33
3689,23544,12296.67
3690,23536,12300.00
3691,23544,12303.33
3692,23568,12306.67
3693,23588,12310.00
3694,23620,12313.33
3695,23656,12316.67
3696,23692,12320.00
3697,23724,12323.33
3698,23756,12326.67
3699,23792,12330.00
3700,23824,12333.33
3701,23848,12336.67
3702,23872,12340.00
3703,23896,12343.33
3704,23916,12346.67
3705,23932,12350.00
3706,23948,12353.33
3707,23964,12356.67
3708,23980,12360.00
3709,24000,12363.33
3710,23996,12366.67
3711,23924,12370.00
3712,23768,12373.33
3713,23568,12376.67
3714,23388,12380.00
3715,23256,12383.33
3716,23200,12386.67
3717,23192,12390.00
3718,23216,12393.33
3719,23248,12396.67
3720,23276,12400.00
3721,23308,12403.33
3722,23344,12406.67
3723,23376,12410.00
3724,23404,12413.33
3725,23428,12416.67
3726,23448,12420.00
3727,23456,12423.33
3728,23440,12426.67
3729,23428,12430.00
3730,23420,12433.33
3731,23428,12436.67
3732,23444,12440.00
3733,23472,12443.33
3734,23500,12446.67
3735,23532,12450.00
3736,23568,12453.33
3737,23612,12456.67
3738,23644,12460.00
3739,23676,12463.33
3740,23712,12466.67
3741,23736,12470.00
3742,23764,12473.33
3743,23788,12476.67
3744,23808,12480.00
3745,23832,12483.33
3746,23848,12486.67
3747,23868,12490.00
3748,23884,12493.33
3749,23900,12496.67
3750,23924,12500.00
3751,23936,12503.33
3752,23956,12506.67
3753,23972,12510.00
3754,23988,12513.33
3755,24012,12516.67
3756,24028,12520.00
3757,24052,12523.33
3758,24044,12526.67
3759,23948,12530.00
3760,23756,12533.33
3761,23524,12536.67
3762,23324,12540.00
3763,23188,12543.33
3764,23128,12546.67
3765,23132,12550.00
3766,23156,12553.33
3767,23196,12556.67
3768,23236,12560.00
3769,23264,12563.33
3770,23292,12566.67
3771,23328,12570.00
3772,23364,12573.33
3773,23392,12576.67
3774,23404,12580.00
3775,23404,12583.33
3776,23404,12586.67
3777,23404,12590.00
3778,23404,12593.33
3779,23408,12596.67
3780,23424,12600.00
3781,23456,12603.33
3782,23496,12606.67
3783,23540,12610.00
3784,23576,12613.33
3785,23604,12616.67
3786,23644,12620.00
3787,23680,12623.33
3788,23712,12626.67
3789,23748,12630.00
3790,23776,12633.33
3791,23808,12636.67
3792,23828,12640.00
3793,23856,12643.33
3794,23880,12646.67
3795,23900,12650.00
3796,23916,12653.33
3797,23940,12656.67
3798,23960,12660.00
3799,23972,12663.33
3800,23988,12666.67
3801,24016,12670.00
3802,24036,12673.33
3803,24056,12676.67
3804,24080,12680.00
3805,24100,12683.33
3806,24124,12686.67
3807,24148,12690.00
3808,24156,12693.33
3809,24084,12696.67
3810,23924,12700.00
3811,23692,12703.33
3812,23472,12706.67
3813,23312,12710.00
3814,23228,12713.33
3815,23208,12716.67
3816,23228,12720.00
3817,23268,12723.33
3818,23316,12726.67
3819,23356,12730.00
3820,23388,12733.33
3821,23424,12736.67
3822,23460,12740.00
3823,23492,12743.33
3824,23508,12746.67
3825,23508,12750.00
3826,23500,12753.33
3827,23492,12756.67
3828,23488,12760.00
3829,23492,12763.33
3830,23512,12766.67
3831,23540,12770.00
3832,23572,12773.33
3833,23600,12776.67
3834,23636,12780.00
3835,23676,12783.33
3836,23712,12786.67
3837,23744,12790.00
3838,23772,12793.33
3839,23800,12796.67
3840,23824,12800.00
3841,23852,12803.33
3842,23876,12806.67
3843,23904,12810.00
3844,23920,12813.33
3845,23940,12816.67
3846,23960,12820.00
3847,23984,12823.33
3848,24004,12826.67
3849,24024,12830.00
3850,24040,12833.33
3851,24064,12836.67
3852,24084,12840.00
3853,24104,12843.33
3854,24124,12846.67
3855,24144,12850.00
3856,24168,12853.33
3857,24184,12856.67
3858,24144,12860.00
3859,24012,12863.33
3860,23808,12866.67
3861,23588,12870.00
3862,23412,12873.33
3863,23304,12876.67
3864,23268,12880.00
3865,23276,12883.33
3866,23316,12886.67
3867,23356,12890.00
3868,23392,12893.33
3869,23432,12896.67
3870,23468,12900.00
3871,23508,12903.33
3872,23532,12906.67
3873,23548,12910.00
3874,23556,12913.33
3875,23552,12916.67
3876,23532,12920.00
3877,23524,12923.33
3878,23528,12926.67
3879,23544,12930.00
3880,23568,12933.33
3881,23600,12936.67
3882,23640,12940.00
3883,23672,12943.33
3884,23720,12946.67
3885,23768,12950.00
3886,23820,12953.33
3887,23852,12956.67
3888,23868,12960.00
3889,23880,12963.33
3890,23896,12966.67
3891,23904,12970.00
3892,23920,12973.33
3893,23920,12976.67
3894,23928,12980.00
3895,23936,12983.33
3896,23944,12986.67
3897,23952,12990.00
3898,23968,12993.33
3899,23988,12996.67
3900,24016,13000.00
3901,24052,13003.33
3902,24084,13006.67
3903,24120,13010.00
3904,24144,13013.33
3905,24100,13016.67
3906,23956,13020.00
3907,23756,13023.33
3908,23552,13026.67
3909,23396,13030.00
3910,23304,13033.33
3911,23268,13036.67
3912,23268,13040.00
3913,23288,13043.33
3914,23316,13046.67
3915,23348,13050.00
3916,23376,13053.33
3917,23396,13056.67
3918,23404,13060.00
3919,23396,13063.33
3920,23388,13066.67
3921,23376,13070.00
3922,23364,13073.33
3923,23344,13076.67
3924,23328,13080.00
3925,23328,13083.33
3926,23340,13086.67
3927,23364,13090.00
3928,23396,13093.33
3929,23432,13096.67
3930,23464,13100.00
3931,23492,13103.33
3932,23520,13106.67
3933,23552,13110.00
3934,23580,13113.33
3935,23608,13116.67
3936,23636,13120.00
3937,23652,13123.33
3938,23656,13126.67
3939,23672,13130.00
3940,23696,13133.33
3941,23716,13136.67
3942,23736,13140.00
3943,23748,13143.33
3944,23772,13146.67
3945,23792,13150.00
3946,23812,13153.33
3947,23804,13156.67
3948,23716,13160.00
3949,23548,13163.33
3950,23344,13166.67
3951,23176,13170.00
3952,23064,13173.33
3953,23008,13176.67
3954,22992,13180.00
3955,23008,13183.33
3956,23028,13186.67
3957,23064,13190.00
3958,23104,13193.33
3959,23136,13196.67
3960,23176,13200.00
3961,23204,13203.33
3962,23220,13206.67
3963,23224,13210.00
3964,23212,13213.33
3965,23204,13216.67
3966,23192,13220.00
3967,23192,13223.33
3968,23200,13226.67
3969,23228,13230.00
3970,23268,13233.33
3971,23300,13236.67
3972,23332,13240.00
3973,23368,13243.33
3974,23400,13246.67
3975,23440,13250.00
3976,23468,13253.33
3977,23496,13256.67
3978,23520,13260.00
3979,23548,13263.33
3980,23568,13266.67
3981,23588,13270.00
3982,23608,13273.33
3983,23624,13276.67
3984,23648,13280.00
3985,23668,13283.33
3986,23692,13286.67
3987,23704,13290.00
3988,23676,13293.33
3989,23568,13296.67
3990,23396,13300.00
3991,23216,13303.33
3992,23076,13306.67
3993,22988,13310.00
3994,22952,13313.33
3995,22960,13316.67
3996,22984,13320.00
3997,23016,13323.33
3998,23044,13326.67
3999,23072,13330.00
4000,23100,13333.33
4001,23136,13336.67
4002,23168,13340.00
4003,23188,13343.33
4004,23196,13346.67
4005,23188,13350.00
4006,23176,13353.33
4007,23172,13356.67
4008,23184,13360.00
4009,23200,13363.33
4010,23220,13366.67
4011,23236,13370.00
4012,23260,13373.33
4013,23296,13376.67
4014,23324,13380.00
4015,23348,13383.33
4016,23368,13386.67
4017,23384,13390.00
4018,23412,13393.33
4019,23440,13396.67
4020,23460,13400.00
4021,23468,13403.33
4022,23480,13406.67
4023,23496,13410.00
4024,23516,13413.33
4025,23536,13416.67
4026,23556,13420.00
4027,23576,13423.33
4028,23600,13426.67
4029,23620,13430.00
4030,23644,13433.33
4031,23652,13436.67
4032,23616,13440.00
4033,23496,13443.33
4034,23316,13446.67
4035,23132,13450.00
4036,23000,13453.33
4037,22932,13456.67
4038,22916,13460.00
4039,22924,13463.33
4040,22948,13466.67
4041,22968,13470.00
4042,22984,13473.33
4043,22996,13476.67
4044,23016,13480.00
4045,23048,13483.33
4046,23080,13486.67
4047,23104,13490.00
4048,23112,13493.33
4049,23112,13496.67
4050,23116,13500.00
4051,23120,13503.33
4052,23128,13506.67
4053,23144,13510.00
4054,23168,13513.33
4055,23200,13516.67
4056,23232,13520.00
4057,23264,13523.33
4058,23296,13526.67
4059,23324,13530.00
4060,23352,13533.33
4061,23380,13536.67
4062,23404,13540.00
4063,23432,13543.33
4064,23452,13546.67
4065,23472,13550.00
4066,23488,13553.33
4067,23508,13556.67
4068,23528,13560.00
4069,23540,13563.33
4070,23552,13566.67
4071,23572,13570.00
4072,23596,13573.33
4073,23616,13576.67
4074,23636,13580.00
4075,23612,13583.33
4076,23520,13586.67
4077,23360,13590.00
4078,23188,13593.33
4079,23052,13596.67
4080,22980,13600.00
4081,22956,13603.33
4082,22964,13606.67
4083,22988,13610.00
4084,23008,13613.33
4085,23024,13616.67
4086,23040,13620.00
4087,23060,13623.33
4088,23088,13626.67
4089,23120,13630.00
4090,23148,13633.33
4091,23156,13636.67
4092,23164,13640.00
4093,23160,13643.33
4094,23168,13646.67
4095,23176,13650.00
4096,23192,13653.33
4097,23212,13656.67
4098,23236,13660.00
4099,23272,13663.33
4100,23304,13666.67
4101,23336,13670.00
4102,23368,13673.33
4103,23396,13676.67
4104,23424,13680.00
4105,23452,13683.33
4106,23472,13686.67
4107,23492,13690.00
4108,23512,13693.33
4109,23532,13696.67
4110,23548,13700.00
4111,23564,13703.33
4112,23580,13706.67
4113,23600,13710.00
4114,23616,13713.33
4115,23632,13716.67
4116,23656,13720.00
4117,23676,13723.33
4118,23696,13726.67
4119,23716,13730.00
4120,23740,13733.33
4121,23716,13736.67
4122,23624,13740.00
4123,23464,13743.33
4124,23292,13746.67
4125,23152,13750.00
4126,23080,13753.33
4127,23056,13756.67
4128,23072,13760.00
4129,23096,13763.33
4130,23128,13766.67
4131,23152,13770.00
4132,23176,13773.33
4133,23204,13776.67
4134,23232,13780.00
4135,23260,13783.33
4136,23276,13786.67
4137,23284,13790.00
4138,23276,13793.33
4139,23264,13796.67
4140,23264,13800.00
4141,23276,13803.33
4142,23292,13806.67
4143,23316,13810.00
4144,23344,13813.33
4145,23372,13816.67
4146,23408,13820.00
4147,23440,13823.33
4148,23472,13826.67
4149,23500,13830.00
4150,23524,13833.33
4151,23548,13836.67
4152,23568,13840.00
4153,23588,13843.33
4154,23604,13846.67
4155,23620,13850.00
4156,23644,13853.33
4157,23660,13856.67
4158,23684,13860.00
4159,23704,13863.33
4160,23728,13866.67
4161,23748,13870.00
4162,23772,13873.33
4163,23796,13876.67
4164,23816,13880.00
4165,23792,13883.33
4166,23708,13886.67
4167,23580,13890.00
4168,23448,13893.33
4169,23348,13896.67
4170,23300,13900.00
4171,23292,13903.33
4172,23308,13906.67
4173,23340,13910.00
4174,23368,13913.33
4175,23392,13916.67
4176,23416,13920.00
4177,23448,13923.33
4178,23480,13926.67
4179,23500,13930.00
4180,23508,13933.33
4181,23508,13936.67
4182,23504,13940.00
4183,23500,13943.33
4184,23508,13946.67
4185,23516,13950.00
4186,23540,13953.33
4187,23564,13956.67
4188,23592,13960.00
4189,23620,13963.33
4190,23652,13966.67
4191,23676,13970.00
4192,23704,13973.33
4193,23740,13976.67
4194,23764,13980.00
4195,23784,13983.33
4196,23808,13986.67
4197,23832,13990.00
4198,23852,13993.33
4199,23868,13996.67
4200,23896,14000.00
4201,23916,14003.33
4202,23940,14006.67
4203,23960,14010.00
4204,23984,14013.33
4205,24008,14016.67
4206,24028,14020.00
4207,24052,14023.33
4208,24076,14026.67
4209,24100,14030.00
4210,24108,14033.33
4211,24072,14036.67
4212,23976,14040.00
4213,23856,14043.33
4214,23736,14046.67
4215,23644,14050.00
4216,23588,14053.33
4217,23568,14056.67
4218,23568,14060.00
4219,23572,14063.33
4220,23580,14066.67
4221,23596,14070.00
4222,23604,14073.33
4223,23620,14076.67
4224,23644,14080.00
4225,23664,14083.33
4226,23680,14086.67
4227,23684,14090.00
4228,23688,14093.33
4229,23688,14096.67
4230,23692,14100.00
4231,23696,14103.33
4232,23716,14106.67
4233,23732,14110.00
4234,23752,14113.33
4235,23776,14116.67
4236,23804,14120.00
4237,23832,14123.33
4238,23856,14126.67
4239,23880,14130.00
4240,23904,14133.33
4241,23924,14136.67
4242,23944,14140.00
4243,23964,14143.33
4244,23980,14146.67
4245,24000,14150.00
4246,24016,14153.33
4247,24040,14156.67
4248,24060,14160.00
4249,24080,14163.33
4250,24104,14166.67
4251,24124,14170.00
4252,24144,14173.33
4253,24172,14176.67
4254,24192,14180.00
4255,24212,14183.33
4256,24240,14186.67
4257,24256,14190.00
4258,24280,14193.33
4259,24300,14196.67
4260,24324,14200.00
4261,24324,14203.33
4262,24276,14206.67
4263,24180,14210.00
4264,24064,14213.33
4265,23940,14216.67
4266,23852,14220.00
4267,23792,14223.33
4268,23756,14226.67
4269,23744,14230.00
4270,23736,14233.33
4271,23736,14236.67
4272,23732,14240.00
4273,23728,14243.33
4274,23736,14246.67
4275,23756,14250.00
4276,23772,14253.33
4277,23784,14256.67
4278,23788,14260.00
4279,23792,14263.33
4280,23792,14266.67
4281,23792,14270.00
4282,23796,14273.33
4283,23804,14276.67
4284,23820,14280.00
4285,23836,14283.33
4286,23860,14286.67
4287,23884,14290.00
4288,23908,14293.33
4289,23932,14296.67
4290,23960,14300.00
4291,23980,14303.33
4292,24000,14306.67
4293,24016,14310.00
4294,24040,14313.33
4295,24056,14316.67
4296,24076,14320.00
4297,24092,14323.33
4298,24112,14326.67
4299,24132,14330.00
4300,24152,14333.33
4301,24176,14336.67
4302,24196,14340.00
4303,24220,14343.33
4304,24244,14346.67
4305,24260,14350.00
4306,24280,14353.33
4307,24304,14356.67
4308,24324,14360.00
4309,24344,14363.33
4310,24368,14366.67
4311,24388,14370.00
4312,24408,14373.33
4313,24432,14376.67
4314,24436,14380.00
4315,24396,14383.33
4316,24312,14386.67
4317,24192,14390.00
4318,24068,14393.33
4319,23968,14396.67
4320,23892,14400.00
4321,23848,14403.33
4322,23832,14406.67
4323,23824,14410.00
4324,23820,14413.33
4325,23816,14416.67
4326,23812,14420.00
4327,23816,14423.33
4328,23828,14426.67
4329,23840,14430.00
4330,23852,14433.33
4331,23856,14436.67
4332,23860,14440.00
4333,23852,14443.33
4334,23852,14446.67
4335,23852,14450.00
4336,23856,14453.33
4337,23864,14456.67
4338,23888,14460.00
4339,23904,14463.33
4340,23932,14466.67
4341,23952,14470.00
4342,23976,14473.33
4343,23996,14476.67
4344,24016,14480.00
4345,24036,14483.33
4346,24056,14486.67
4347,24076,14490.00
4348,24092,14493.33
4349,24112,14496.67
4350,24124,14500.00
4351,24144,14503.33
4352,24160,14506.67
4353,24184,14510.00
4354,24200,14513.33
4355,24220,14516.67
4356,24240,14520.00
4357,24260,14523.33
4358,24280,14526.67
4359,24300,14530.00
4360,24320,14533.33
4361,24340,14536.67
4362,24360,14540.00
4363,24380,14543.33
4364,24400,14546.67
4365,24420,14550.00
4366,24424,14553.33
4367,24376,14556.67
4368,24284,14560.00
4369,24160,14563.33
4370,24020,14566.67
4371,23908,14570.00
4372,23824,14573.33
4373,23776,14576.67
4374,23752,14580.00
4375,23752,14583.33
4376,23756,14586.67
4377,23760,14590.00
4378,23760,14593.33
4379,23768,14596.67
4380,23784,14600.00
4381,23800,14603.33
4382,23808,14606.67
4383,23812,14610.00
4384,23808,14613.33
4385,23804,14616.67
4386,23800,14620.00
4387,23800,14623.33
4388,23812,14626.67
4389,23824,14630.00
4390,23844,14633.33
4391,23868,14636.67
4392,23892,14640.00
4393,23920,14643.33
4394,23944,14646.67
4395,23968,14650.00
4396,23992,14653.33
4397,24012,14656.67
4398,24036,14660.00
4399,24052,14663.33
4400,24072,14666.67
4401,24084,14670.00
4402,24100,14673.33
4403,24116,14676.67
4404,24132,14680.00
4405,24156,14683.33
4406,24172,14686.67
4407,24188,14690.00
4408,24208,14693.33
4409,24228,14696.67
4410,24248,14700.00
4411,24264,14703.33
4412,24284,14706.67
4413,24300,14710.00
4414,24320,14713.33
4415,24344,14716.67
4416,24356,14720.00
4417,24352,14723.33
4418,24300,14726.67
4419,24192,14730.00
4420,24052,14733.33
4421,23904,14736.67
4422,23788,14740.00
4423,23712,14743.33
4424,23672,14746.67
4425,23664,14750.00
4426,23672,14753.33
4427,23684,14756.67
4428,23696,14760.00
4429,23704,14763.33
4430,23724,14766.67
4431,23744,14770.00
4432,23752,14773.33
4433,23760,14776.67
4434,23756,14780.00
4435,23748,14783.33
4436,23736,14786.67
4437,23732,14790.00
4438,23728,14793.33
4439,23732,14796.67
4440,23744,14800.00
4441,23760,14803.33
4442,23784,14806.67
4443,23800,14810.00
4444,23820,14813.33
4445,23844,14816.67
4446,23864,14820.00
4447,23880,14823.33
4448,23896,14826.67
4449,23916,14830.00
4450,23928,14833.33
4451,23944,14836.67
4452,23960,14840.00
4453,23976,14843.33
4454,23988,14846.67
4455,24004,14850.00
4456,24020,14853.33
4457,24040,14856.67
4458,24056,14860.00
4459,24076,14863.33
4460,24096,14866.67
4461,24116,14870.00
4462,24104,14873.33
4463,24040,14876.67
4464,23928,14880.00
4465,23788,14883.33
4466,23644,14886.67
4467,23544,14890.00
4468,23492,14893.33
4469,23480,14896.67
4470,23488,14900.00
4471,23512,14903.33
4472,23532,14906.67
4473,23556,14910.00
4474,23580,14913.33
4475,23604,14916.67
4476,23624,14920.00
4477,23636,14923.33
4478,23644,14926.67
4479,23636,14930.00
4480,23624,14933.33
4481,23620,14936.67
4482,23620,14940.00
4483,23624,14943.33
4484,23640,14946.67
4485,23660,14950.00
4486,23688,14953.33
4487,23712,14956.67
4488,23736,14960.00
4489,23764,14963.33
4490,23792,14966.67
4491,23812,14970.00
4492,23832,14973.33
4493,23852,14976.67
4494,23868,14980.00
4495,23884,14983.33
4496,23896,14986.67
4497,23908,14990.00
4498,23924,14993.33
4499,23944,14996.67
4500,23956,15000.00
4501,23972,15003.33
4502,23984,15006.67
4503,24004,15010.00
4504,24016,15013.33
4505,24036,15016.67
4506,24056,15020.00
4507,24048,15023.33
4508,23984,15026.67
4509,23864,15030.00
4510,23704,15033.33
4511,23540,15036.67
4512,23416,15040.00
4513,23348,15043.33
4514,23336,15046.67
4515,23348,15050.00
4516,23368,15053.33
4517,23388,15056.67
4518,23404,15060.00
4519,23424,15063.33
4520,23448,15066.67
4521,23472,15070.00
4522,23492,15073.33
4523,23508,15076.67
4524,23516,15080.00
4525,23512,15083.33
4526,23508,15086.67
4527,23504,15090.00
4528,23508,15093.33
4529,23520,15096.67
4530,23544,15100.00
4531,23572,15103.33
4532,23608,15106.67
4533,23632,15110.00
4534,23664,15113.33
4535,23688,15116.67
4536,23716,15120.00
4537,23740,15123.33
4538,23756,15126.67
4539,23780,15130.00
4540,23800,15133.33
4541,23812,15136.67
4542,23832,15140.00
4543,23852,15143.33
4544,23868,15146.67
4545,23880,15150.00
4546,23896,15153.33
4547,23908,15156.67
4548,23924,15160.00
4549,23940,15163.33
4550,23960,15166.67
4551,23976,15170.00
4552,23960,15173.33
4553,23888,15176.67
4554,23748,15180.00
4555,23568,15183.33
4556,23412,15186.67
4557,23300,15190.00
4558,23244,15193.33
4559,23232,15196.67
4560,23248,15200.00
4561,23264,15203.33
4562,23292,15206.67
4563,23308,15210.00
4564,23320,15213.33
4565,23340,15216.67
4566,23364,15220.00
4567,23384,15223.33
4568,23408,15226.67
4569,23412,15230.00
4570,23412,15233.33
4571,23412,15236.67
4572,23412,15240.00
4573,23424,15243.33
4574,23440,15246.67
4575,23464,15250.00
4576,23484,15253.33
4577,23512,15256.67
4578,23544,15260.00
4579,23572,15263.33
4580,23604,15266.67
4581,23628,15270.00
4582,23652,15273.33
4583,23672,15276.67
4584,23696,15280.00
4585,23712,15283.33
4586,23724,15286.67
4587,23740,15290.00
4588,23756,15293.33
4589,23768,15296.67
4590,23788,15300.00
4591,23808,15303.33
4592,23828,15306.67
4593,23848,15310.00
4594,23864,15313.33
4595,23876,15316.67
4596,23892,15320.00
4597,23916,15323.33
4598,23908,15326.67
4599,23840,15330.00
4600,23696,15333.33
4601,23512,15336.67
4602,23340,15340.00
4603,23224,15343.33
4604,23168,15346.67
4605,23156,15350.00
4606,23168,15353.33
4607,23196,15356.67
4608,23224,15360.00
4609,23240,15363.33
4610,23256,15366.67
4611,23272,15370.00
4612,23300,15373.33
4613,23320,15376.67
4614,23328,15380.00
4615,23328,15383.33
4616,23324,15386.67
4617,23320,15390.00
4618,23328,15393.33
4619,23340,15396.67
4620,23364,15400.00
4621,23384,15403.33
4622,23412,15406.67
4623,23436,15410.00
4624,23468,15413.33
4625,23496,15416.67
4626,23528,15420.00
4627,23556,15423.33
4628,23584,15426.67
4629,23608,15430.00
4630,23632,15433.33
4631,23644,15436.67
4632,23664,15440.00
4633,23680,15443.33
4634,23696,15446.67
4635,23716,15450.00
4636,23740,15453.33
4637,23756,15456.67
4638,23772,15460.00
4639,23788,15463.33
4640,23804,15466.67
4641,23816,15470.00
4642,23836,15473.33
4643,23856,15476.67
4644,23836,15480.00
4645,23764,15483.33
4646,23608,15486.67
4647,23432,15490.00
4648,23284,15493.33
4649,23192,15496.67
4650,23152,15500.00
4651,23152,15503.33
4652,23176,15506.67
4653,23208,15510.00
4654,23240,15513.33
4655,23260,15516.67
4656,23284,15520.00
4657,23316,15523.33
4658,23340,15526.67
4659,23352,15530.00
4660,23348,15533.33
4661,23336,15536.67
4662,23328,15540.00
4663,23324,15543.33
4664,23332,15546.67
4665,23340,15550.00
4666,23360,15553.33
4667,23380,15556.67
4668,23408,15560.00
4669,23432,15563.33
4670,23456,15566.67
4671,23488,15570.00
4672,23520,15573.33
4673,23548,15576.67
4674,23576,15580.00
4675,23596,15583.33
4676,23608,15586.67
4677,23628,15590.00
4678,23644,15593.33
4679,23660,15596.67
4680,23676,15600.00
4681,23692,15603.33
4682,23712,15606.67
4683,23732,15610.00
4684,23752,15613.33
4685,23772,15616.67
4686,23776,15620.00
4687,23716,15623.33
4688,23588,15626.67
4689,23420,15630.00
4690,23264,15633.33
4691,23156,15636.67
4692,23108,15640.00
4693,23108,15643.33
4694,23136,15646.67
4695,23172,15650.00
4696,23204,15653.33
4697,23228,15656.67
4698,23248,15660.00
4699,23280,15663.33
4700,23316,15666.67
4701,23344,15670.00
4702,23356,15673.33
4703,23360,15676.67
4704,23352,15680.00
4705,23340,15683.33
4706,23340,15686.67
4707,23348,15690.00
4708,23364,15693.33
4709,23396,15696.67
4710,23424,15700.00
4711,23456,15703.33
4712,23488,15706.67
4713,23516,15710.00
4714,23540,15713.33
4715,23564,15716.67
4716,23584,15720.00
4717,23608,15723.33
4718,23632,15726.67
4719,23652,15730.00
4720,23668,15733.33
4721,23688,15736.67
4722,23708,15740.00
4723,23720,15743.33
4724,23732,15746.67
4725,23748,15750.00
4726,23768,15753.33
4727,23780,15756.67
4728,23736,15760.00
4729,23612,15763.33
4730,23440,15766.67
4731,23260,15770.00
4732,23132,15773.33
4733,23064,15776.67
4734,23044,15780.00
4735,23056,15783.33
4736,23080,15786.67
4737,23108,15790.00
4738,23132,15793.33
4739,23152,15796.67
4740,23172,15800.00
4741,23200,15803.33
4742,23228,15806.67
4743,23244,15810.00
4744,23260,15813.33
4745,23260,15816.67
4746,23260,15820.00
4747,23260,15823.33
4748,23276,15826.67
4749,23292,15830.00
4750,23320,15833.33
4751,23344,15836.67
4752,23376,15840.00
4753,23408,15843.33
4754,23440,15846.67
4755,23472,15850.00
4756,23500,15853.33
4757,23532,15856.67
4758,23556,15860.00
4759,23576,15863.33
4760,23600,15866.67
4761,23624,15870.00
4762,23644,15873.33
4763,23664,15876.67
4764,23684,15880.00
4765,23700,15883.33
4766,23716,15886.67
4767,23732,15890.00
4768,23752,15893.33
4769,23768,15896.67
4770,23784,15900.00
4771,23792,15903.33
4772,23748,15906.67
4773,23616,15910.00
4774,23428,15913.33
4775,23240,15916.67
4776,23104,15920.00
4777,23032,15923.33
4778,23016,15926.67
4779,23032,15930.00
4780,23060,15933.33
4781,23092,15936.67
4782,23112,15940.00
4783,23124,15943.33
4784,23148,15946.67
4785,23176,15950.00
4786,23208,15953.33
4787,23232,15956.67
4788,23244,15960.00
4789,23248,15963.33
4790,23244,15966.67
4791,23248,15970.00
4792,23264,15973.33
4793,23280,15976.67
4794,23300,15980.00
4795,23328,15983.33
4796,23356,15986.67
4797,23388,15990.00
4798,23428,15993.33
4799,23460,15996.67
4800,23492,16000.00
4801,23528,16003.33
4802,23556,16006.67
4803,23580,16010.00
4804,23604,16013.33
4805,23624,16016.67
4806,23644,16020.00
4807,23660,16023.33
4808,23680,16026.67
4809,23700,16030.00
4810,23720,16033.33
4811,23740,16036.67
4812,23760,16040.00
4813,23784,16043.33
4814,23804,16046.67
4815,23820,16050.00
4816,23836,16053.33
4817,23860,16056.67
4818,23880,16060.00
4819,23864,16063.33
4820,23768,16066.67
4821,23592,16070.00
4822,23384,16073.33
4823,23212,16076.67
4824,23112,16080.00
4825,23064,16083.33
4826,23064,16086.67
4827,23088,16090.00
4828,23120,16093.33
4829,23144,16096.67
4830,23160,16100.00
4831,23184,16103.33
4832,23212,16106.67
4833,23240,16110.00
4834,23264,16113.33
4835,23268,16116.67
4836,23268,16120.00
4837,23260,16123.33
4838,23256,16126.67
4839,23256,16130.00
4840,23272,16133.33
4841,23292,16136.67
4842,23320,16140.00
4843,23348,16143.33
4844,23376,16146.67
4845,23408,16150.00
4846,23440,16153.33
4847,23472,16156.67
4848,23500,16160.00
4849,23528,16163.33
4850,23552,16166.67
4851,23572,16170.00
4852,23592,16173.33
4853,23604,16176.67
4854,23620,16180.00
4855,23644,16183.33
4856,23660,16186.67
4857,23680,16190.00
4858,23696,16193.33
4859,23720,16196.67
4860,23740,16200.00
4861,23724,16203.33
4862,23632,16206.67
4863,23476,16210.00
4864,23296,16213.33
4865,23152,16216.67
4866,23068,16220.00
4867,23044,16223.33
4868,23048,16226.67
4869,23080,16230.00
4870,23112,16233.33
4871,23140,16236.67
4872,23172,16240.00
4873,23208,16243.33
4874,23244,16246.67
4875,23284,16250.00
4876,23304,16253.33
4877,23304,16256.67
4878,23292,16260.00
4879,23280,16263.33
4880,23272,16266.67
4881,23272,16270.00
4882,23284,16273.33
4883,23304,16276.67
4884,23336,16280.00
4885,23368,16283.33
4886,23400,16286.67
4887,23428,16290.00
4888,23464,16293.33
4889,23492,16296.67
4890,23520,16300.00
4891,23544,16303.33
4892,23568,16306.67
4893,23592,16310.00
4894,23608,16313.33
4895,23624,16316.67
4896,23640,16320.00
4897,23656,16323.33
4898,23672,16326.67
4899,23684,16330.00
4900,23696,16333.33
4901,23660,16336.67
4902,23536,16340.00
4903,23360,16343.33
4904,23180,16346.67
4905,23056,16350.00
4906,22992,16353.33
4907,22980,16356.67
4908,22996,16360.00
4909,23020,16363.33
4910,23056,16366.67
4911,23084,16370.00
4912,23116,16373.33
4913,23148,16376.67
4914,23184,16380.00
4915,23216,16383.33
4916,23232,16386.67
4917,23236,16390.00
4918,23232,16393.33
4919,23236,16396.67
4920,23228,16400.00
4921,23236,16403.33
4922,23256,16406.67
4923,23284,16410.00
4924,23312,16413.33
4925,23344,16416.67
4926,23376,16420.00
4927,23416,16423.33
4928,23448,16426.67
4929,23480,16430.00
4930,23512,16433.33
4931,23536,16436.67
4932,23560,16440.00
4933,23580,16443.33
4934,23596,16446.67
4935,23608,16450.00
4936,23628,16453.33
4937,23644,16456.67
4938,23664,16460.00
4939,23684,16463.33
4940,23688,16466.67
4941,23632,16470.00
4942,23492,16473.33
4943,23300,16476.67
4944,23120,16480.00
4945,22992,16483.33
4946,22936,16486.67
4947,22928,16490.00
4948,22944,16493.33
4949,22976,16496.67
4950,23004,16500.00
4951,23024,16503.33
4952,23044,16506.67
4953,23064,16510.00
4954,23104,16513.33
4955,23132,16516.67
4956,23156,16520.00
4957,23172,16523.33
4958,23176,16526.67
4959,23172,16530.00
4960,23176,16533.33
4961,23184,16536.67
4962,23204,16540.00
4963,23224,16543.33
4964,23252,16546.67
4965,23292,16550.00
4966,23328,16553.33
4967,23364,16556.67
4968,23396,16560.00
4969,23424,16563.33
4970,23456,16566.67
4971,23480,16570.00
4972,23508,16573.33
4973,23532,16576.67
4974,23552,16580.00
4975,23572,16583.33
4976,23588,16586.67
4977,23604,16590.00
4978,23620,16593.33
4979,23644,16596.67
4980,23664,16600.00
4981,23684,16603.33
4982,23660,16606.67
4983,23552,16610.00
4984,23372,16613.33
4985,23176,16616.67
4986,23024,16620.00
4987,22940,16623.33
4988,22912,16626.67
4989,22916,16630.00
4990,22940,16633.33
4991,22972,16636.67
4992,23000,16640.00
4993,23024,16643.33
4994,23044,16646.67
4995,23072,16650.00
4996,23104,16653.33
4997,23124,16656.67
4998,23140,16660.00
4999,23140,16663.33
5000,23136,16666.67
5001,23132,16670.00
5002,23144,16673.33
5003,23160,16676.67
5004,23180,16680.00
5005,23212,16683.33
5006,23248,16686.67
5007,23276,16690.00
5008,23312,16693.33
5009,23344,16696.67
5010,23376,16700.00
5011,23408,16703.33
5012,23444,16706.67
5013,23468,16710.00
5014,23492,16713.33
5015,23512,16716.67
5016,23536,16720.00
5017,23556,16723.33
5018,23572,16726.67
5019,23600,16730.00
5020,23624,16733.33
5021,23640,16736.67
5022,23656,16740.00
5023,23684,16743.33
5024,23704,16746.67
5025,23720,16750.00
5026,23688,16753.33
5027,23568,16756.67
5028,23380,16760.00
5029,23184,16763.33
5030,23036,16766.67
5031,22968,16770.00
5032,22948,16773.33
5033,22960,16776.67
5034,22996,16780.00
5035,23032,16783.33
5036,23060,16786.67
5037,23088,16790.00
5038,23120,16793.33
5039,23148,16796.67
5040,23188,16800.00
5041,23200,16803.33
5042,23200,16806.67
5043,23188,16810.00
5044,23172,16813.33
5045,23168,16816.67
5046,23176,16820.00
5047,23192,16823.33
5048,23216,16826.67
5049,23244,16830.00
5050,23280,16833.33
5051,23312,16836.67
5052,23344,16840.00
5053,23372,16843.33
5054,23400,16846.67
5055,23424,16850.00
5056,23448,16853.33
5057,23468,16856.67
5058,23492,16860.00
5059,23508,16863.33
5060,23532,16866.67
5061,23548,16870.00
5062,23564,16873.33
5063,23576,16876.67
5064,23596,16880.00
5065,23616,16883.33
5066,23608,16886.67
5067,23524,16890.00
5068,23364,16893.33
5069,23180,16896.67
5070,23032,16900.00
5071,22948,16903.33
5072,22916,16906.67
5073,22928,16910.00
5074,22964,16913.33
5075,23004,16916.67
5076,23044,16920.00
5077,23080,16923.33
5078,23112,16926.67
5079,23152,16930.00
5080,23176,16933.33
5081,23188,16936.67
5082,23192,16940.00
5083,23188,16943.33
5084,23180,16946.67
5085,23180,16950.00
5086,23192,16953.33
5087,23204,16956.67
5088,23228,16960.00
5089,23256,16963.33
5090,23284,16966.67
5091,23320,16970.00
5092,23352,16973.33
5093,23388,16976.67
5094,23420,16980.00
5095,23452,16983.33
5096,23472,16986.67
5097,23500,16990.00
5098,23516,16993.33
5099,23528,16996.67
5100,23548,17000.00
5101,23568,17003.33
5102,23588,17006.67
5103,23604,17010.00
5104,23624,17013.33
5105,23652,17016.67
5106,23664,17020.00
5107,23604,17023.33
5108,23460,17026.67
5109,23260,17030.00
5110,23076,17033.33
5111,22940,17036.67
5112,22876,17040.00
5113,22864,17043.33
5114,22888,17046.67
5115,22920,17050.00
5116,22956,17053.33
5117,22980,17056.67
5118,23004,17060.00
5119,23036,17063.33
5120,23064,17066.67
5121,23096,17070.00
5122,23112,17073.33
5123,23124,17076.67
5124,23128,17080.00
5125,23128,17083.33
5126,23128,17086.67
5127,23144,17090.00
5128,23160,17093.33
5129,23192,17096.67
5130,23224,17100.00
5131,23256,17103.33
5132,23292,17106.67
5133,23336,17110.00
5134,23364,17113.33
5135,23400,17116.67
5136,23424,17120.00
5137,23452,17123.33
5138,23480,17126.67
5139,23508,17130.00
5140,23528,17133.33
5141,23548,17136.67
5142,23564,17140.00
5143,23584,17143.33
5144,23604,17146.67
5145,23624,17150.00
5146,23640,17153.33
5147,23664,17156.67
5148,23680,17160.00
5149,23684,17163.33
5150,23612,17166.67
5151,23452,17170.00
5152,23240,17173.33
5153,23052,17176.67
5154,22928,17180.00
5155,22876,17183.33
5156,22876,17186.67
5157,22896,17190.00
5158,22928,17193.33
5159,22960,17196.67
5160,22976,17200.00
5161,23000,17203.33
5162,23028,17206.67
5163,23064,17210.00
5164,23092,17213.33
5165,23116,17216.67
5166,23124,17220.00
5167,23128,17223.33
5168,23128,17226.67
5169,23124,17230.00
5170,23140,17233.33
5171,23156,17236.67
5172,23188,17240.00
5173,23216,17243.33
5174,23256,17246.67
5175,23288,17250.00
5176,23324,17253.33
5177,23356,17256.67
5178,23388,17260.00
5179,23420,17263.33
5180,23444,17266.67
5181,23468,17270.00
5182,23488,17273.33
5183,23512,17276.67
5184,23532,17280.00
5185,23552,17283.33
5186,23572,17286.67
5187,23596,17290.00
5188,23616,17293.33
5189,23640,17296.67
5190,23664,17300.00
5191,23684,17303.33
5192,23708,17306.67
5193,23732,17310.00
5194,23752,17313.33
5195,23768,17316.67
5196,23724,17320.00
5197,23592,17323.33
5198,23384,17326.67
5199,23176,17330.00
5200,23020,17333.33
5201,22944,17336.67
5202,22920,17340.00
5203,22940,17343.33
5204,22976,17346.67
5205,23008,17350.00
5206,23036,17353.33
5207,23056,17356.67
5208,23080,17360.00
5209,23108,17363.33
5210,23140,17366.67
5211,23164,17370.00
5212,23168,17373.33
5213,23160,17376.67
5214,23156,17380.00
5215,23152,17383.33
5216,23156,17386.67
5217,23172,17390.00
5218,23192,17393.33
5219,23220,17396.67
5220,23256,17400.00
5221,23292,17403.33
5222,23328,17406.67
5223,23360,17410.00
5224,23392,17413.33
5225,23420,17416.67
5226,23448,17420.00
5227,23472,17423.33
5228,23488,17426.67
5229,23508,17430.00
5230,23532,17433.33
5231,23548,17436.67
5232,23568,17440.00
5233,23584,17443.33
5234,23604,17446.67
5235,23620,17450.00
5236,23640,17453.33
5237,23660,17456.67
5238,23656,17460.00
5239,23572,17463.33
5240,23408,17466.67
5241,23208,17470.00
5242,23052,17473.33
5243,22956,17476.67
5244,22924,17480.00
5245,22936,17483.33
5246,22972,17486.67
5247,23012,17490.00
5248,23052,17493.33
5249,23080,17496.67
5250,23120,17500.00
5251,23156,17503.33
5252,23192,17506.67
5253,23216,17510.00
5254,23220,17513.33
5255,23212,17516.67
5256,23200,17520.00
5257,23192,17523.33
5258,23200,17526.67
5259,23216,17530.00
5260,23240,17533.33
5261,23272,17536.67
5262,23304,17540.00
5263,23340,17543.33
5264,23372,17546.67
5265,23404,17550.00
5266,23436,17553.33
5267,23464,17556.67
5268,23488,17560.00
5269,23508,17563.33
5270,23528,17566.67
5271,23552,17570.00
5272,23568,17573.33
5273,23580,17576.67
5274,23596,17580.00
5275,23612,17583.33
5276,23632,17586.67
5277,23652,17590.00
5278,23668,17593.33
5279,23624,17596.67
5280,23492,17600.00
5281,23292,17603.33
5282,23096,17606.67
5283,22964,17610.00
5284,22896,17613.33
5285,22880,17616.67
5286,22904,17620.00
5287,22936,17623.33
5288,22972,17626.67
5289,23004,17630.00
5290,23032,17633.33
5291,23060,17636.67
5292,23096,17640.00
5293,23124,17643.33
5294,23148,17646.67
5295,23156,17650.00
5296,23156,17653.33
5297,23148,17656.67
5298,23148,17660.00
5299,23152,17663.33
5300,23176,17666.67
5301,23204,17670.00
5302,23240,17673.33
5303,23284,17676.67
5304,23320,17680.00
5305,23356,17683.33
5306,23396,17686.67
5307,23428,17690.00
5308,23456,17693.33
5309,23484,17696.67
5310,23504,17700.00
5311,23520,17703.33
5312,23532,17706.67
5313,23540,17710.00
5314,23552,17713.33
5315,23568,17716.67
5316,23576,17720.00
5317,23584,17723.33
5318,23600,17726.67
5319,23612,17730.00
5320,23584,17733.33
5321,23464,17736.67
5322,23272,17740.00
5323,23076,17743.33
5324,22916,17746.67
5325,22840,17750.00
5326,22812,17753.33
5327,22820,17756.67
5328,22840,17760.00
5329,22860,17763.33
5330,22880,17766.67
5331,22896,17770.00
5332,22920,17773.33
5333,22952,17776.67
5334,22980,17780.00
5335,23012,17783.33
5336,23024,17786.67
5337,23032,17790.00
5338,23020,17793.33
5339,23020,17796.67
5340,23024,17800.00
5341,23040,17803.33
5342,23064,17806.67
5343,23096,17810.00
5344,23136,17813.33
5345,23172,17816.67
5346,23204,17820.00
5347,23240,17823.33
5348,23268,17826.67
5349,23296,17830.00
5350,23324,17833.33
5351,23348,17836.67
5352,23368,17840.00
5353,23388,17843.33
5354,23404,17846.67
5355,23416,17850.00
5356,23436,17853.33
5357,23452,17856.67
5358,23472,17860.00
5359,23488,17863.33
5360,23512,17866.67
5361,23532,17870.00
5362,23556,17873.33
5363,23572,17876.67
5364,23540,17880.00
5365,23412,17883.33
5366,23208,17886.67
5367,23004,17890.00
5368,22856,17893.33
5369,22784,17896.67
5370,22768,17900.00
5371,22788,17903.33
5372,22824,17906.67
5373,22852,17910.00
5374,22880,17913.33
5375,22900,17916.67
5376,22920,17920.00
5377,22948,17923.33
5378,22976,17926.67
5379,23000,17930.00
5380,23008,17933.33
5381,23008,17936.67
5382,23000,17940.00
5383,23000,17943.33
5384,23004,17946.67
5385,23016,17950.00
5386,23044,17953.33
5387,23072,17956.67
5388,23100,17960.00
5389,23132,17963.33
5390,23164,17966.67
5391,23200,17970.00
5392,23220,17973.33
5393,23248,17976.67
5394,23268,17980.00
5395,23284,17983.33
5396,23304,17986.67
5397,23316,17990.00
5398,23328,17993.33
5399,23344,17996.67
5400,23360,18000.00
5401,23376,18003.33
5402,23396,18006.67
5403,23416,18010.00
5404,23436,18013.33
5405,23444,18016.67
5406,23376,18020.00
5407,23232,18023.33
5408,23052,18026.67
5409,22896,18030.00
5410,22796,18033.33
5411,22764,18036.67
5412,22772,18040.00
5413,22800,18043.33
5414,22844,18046.67
5415,22888,18050.00
5416,22920,18053.33
5417,22948,18056.67
5418,22984,18060.00
5419,23016,18063.33
5420,23032,18066.67
5421,23036,18070.00
5422,23028,18073.33
5423,23016,18076.67
5424,23004,18080.00
5425,23004,18083.33
5426,23016,18086.67
5427,23044,18090.00
5428,23076,18093.33
5429,23104,18096.67
5430,23136,18100.00
5431,23164,18103.33
5432,23192,18106.67
5433,23220,18110.00
5434,23244,18113.33
5435,23264,18116.67
5436,23280,18120.00
5437,23300,18123.33
5438,23312,18126.67
5439,23324,18130.00
5440,23340,18133.33
5441,23356,18136.67
5442,23372,18140.00
5443,23388,18143.33
5444,23408,18146.67
5445,23424,18150.00
5446,23404,18153.33
5447,23300,18156.67
5448,23128,18160.00
5449,22940,18163.33
5450,22804,18166.67
5451,22732,18170.00
5452,22720,18173.33
5453,22744,18176.67
5454,22776,18180.00
5455,22808,18183.33
5456,22832,18186.67
5457,22860,18190.00
5458,22892,18193.33
5459,22928,18196.67
5460,22960,18200.00
5461,22976,18203.33
5462,22984,18206.67
5463,22980,18210.00
5464,22984,18213.33
5465,22984,18216.67
5466,22996,18220.00
5467,23016,18223.33
5468,23044,18226.67
5469,23076,18230.00
5470,23108,18233.33
5471,23144,18236.67
5472,23180,18240.00
5473,23208,18243.33
5474,23240,18246.67
5475,23268,18250.00
5476,23296,18253.33
5477,23316,18256.67
5478,23336,18260.00
5479,23356,18263.33
5480,23376,18266.67
5481,23388,18270.00
5482,23404,18273.33
5483,23424,18276.67
5484,23448,18280.00
5485,23468,18283.33
5486,23488,18286.67
5487,23512,18290.00
5488,23492,18293.33
5489,23380,18296.67
5490,23196,18300.00
5491,23000,18303.33
5492,22848,18306.67
5493,22760,18310.00
5494,22736,18313.33
5495,22748,18316.67
5496,22776,18320.00
5497,22808,18323.33
5498,22824,18326.67
5499,22840,18330.00
5500,22856,18333.33
5501,22888,18336.67
5502,22928,18340.00
5503,22956,18343.33
5504,22976,18346.67
5505,22980,18350.00
5506,22984,18353.33
5507,22976,18356.67
5508,22988,18360.00
5509,23008,18363.33
5510,23028,18366.67
5511,23056,18370.00
5512,23092,18373.33
5513,23128,18376.67
5514,23164,18380.00
5515,23196,18383.33
5516,23228,18386.67
5517,23256,18390.00
5518,23284,18393.33
5519,23308,18396.67
5520,23332,18400.00
5521,23352,18403.33
5522,23372,18406.67
5523,23392,18410.00
5524,23408,18413.33
5525,23432,18416.67
5526,23452,18420.00
5527,23472,18423.33
5528,23496,18426.67
5529,23516,18430.00
5530,23544,18433.33
5531,23572,18436.67
5532,23592,18440.00
5533,23572,18443.33
5534,23464,18446.67
5535,23280,18450.00
5536,23072,18453.33
5537,22908,18456.67
5538,22820,18460.00
5539,22796,18463.33
5540,22808,18466.67
5541,22840,18470.00
5542,22876,18473.33
5543,22900,18476.67
5544,22916,18480.00
5545,22936,18483.33
5546,22964,18486.67
5547,23000,18490.00
5548,23028,18493.33
5549,23040,18496.67
5550,23044,18500.00
5551,23040,18503.33
5552,23032,18506.67
5553,23036,18510.00
5554,23060,18513.33
5555,23080,18516.67
5556,23108,18520.00
5557,23136,18523.33
5558,23172,18526.67
5559,23208,18530.00
5560,23236,18533.33
5561,23268,18536.67
5562,23296,18540.00
5563,23320,18543.33
5564,23348,18546.67
5565,23368,18550.00
5566,23388,18553.33
5567,23408,18556.67
5568,23424,18560.00
5569,23444,18563.33
5570,23460,18566.67
5571,23480,18570.00
5572,23500,18573.33
5573,23516,18576.67
5574,23536,18580.00
5575,23560,18583.33
5576,23572,18586.67
5577,23536,18590.00
5578,23404,18593.33
5579,23212,18596.67
5580,23028,18600.00
5581,22904,18603.33
5582,22848,18606.67
5583,22848,18610.00
5584,22868,18613.33
5585,22908,18616.67
5586,22944,18620.00
5587,22972,18623.33
5588,23000,18626.67
5589,23032,18630.00
5590,23064,18633.33
5591,23088,18636.67
5592,23104,18640.00
5593,23100,18643.33
5594,23092,18646.67
5595,23088,18650.00
5596,23084,18653.33
5597,23096,18656.67
5598,23120,18660.00
5599,23144,18663.33
5600,23176,18666.67
5601,23204,18670.00
5602,23240,18673.33
5603,23276,18676.67
5604,23312,18680.00
5605,23336,18683.33
5606,23360,18686.67
5607,23380,18690.00
5608,23400,18693.33
5609,23420,18696.67
5610,23436,18700.00
5611,23452,18703.33
5612,23464,18706.67
5613,23480,18710.00
5614,23496,18713.33
5615,23520,18716.67
5616,23540,18720.00
5617,23548,18723.33
5618,23488,18726.67
5619,23348,18730.00
5620,23160,18733.33
5621,22984,18736.67
5622,22872,18740.00
5623,22824,18743.33
5624,22828,18746.67
5625,22860,18750.00
5626,22892,18753.33
5627,22924,18756.67
5628,22952,18760.00
5629,22984,18763.33
5630,23020,18766.67
5631,23056,18770.00
5632,23084,18773.33
5633,23100,18776.67
5634,23100,18780.00
5635,23096,18783.33
5636,23088,18786.67
5637,23088,18790.00
5638,23104,18793.33
5639,23124,18796.67
5640,23156,18800.00
5641,23192,18803.33
5642,23228,18806.67
5643,23264,18810.00
5644,23300,18813.33
5645,23332,18816.67
5646,23364,18820.00
5647,23392,18823.33
5648,23416,18826.67
5649,23440,18830.00
5650,23456,18833.33
5651,23476,18836.67
5652,23500,18840.00
5653,23508,18843.33
5654,23532,18846.67
5655,23552,18850.00
5656,23568,18853.33
5657,23588,18856.67
5658,23584,18860.00
5659,23508,18863.33
5660,23348,18866.67
5661,23140,18870.00
5662,22960,18873.33
5663,22844,18876.67
5664,22800,18880.00
5665,22808,18883.33
5666,22832,18886.67
5667,22864,18890.00
5668,22892,18893.33
5669,22908,18896.67
5670,22928,18900.00
5671,22956,18903.33
5672,22996,18906.67
5673,23024,18910.00
5674,23044,18913.33
5675,23056,18916.67
5676,23056,18920.00
5677,23052,18923.33
5678,23056,18926.67
5679,23068,18930.00
5680,23088,18933.33
5681,23120,18936.67
5682,23152,18940.00
5683,23188,18943.33
5684,23228,18946.67
5685,23260,18950.00
5686,23296,18953.33
5687,23324,18956.67
5688,23352,18960.00
5689,23380,18963.33
5690,23408,18966.67
5691,23428,18970.00
5692,23448,18973.33
5693,23472,18976.67
5694,23488,18980.00
5695,23512,18983.33
5696,23528,18986.67
5697,23540,18990.00
5698,23560,18993.33
5699,23584,18996.67
5700,23604,19000.00
5701,23616,19003.33
5702,23556,19006.67
5703,23400,19010.00
5704,23192,19013.33
5705,23000,19016.67
5706,22868,19020.00
5707,22812,19023.33
5708,22808,19026.67
5709,22832,19030.00
5710,22864,19033.33
5711,22896,19036.67
5712,22916,19040.00
5713,22936,19043.33
5714,22964,19046.67
5715,22992,19050.00
5716,23028,19053.33
5717,23048,19056.67
5718,23056,19060.00
5719,23056,19063.33
5720,23056,19066.67
5721,23056,19070.00
5722,23064,19073.33
5723,23080,19076.67
5724,23104,19080.00
5725,23140,19083.33
5726,23172,19086.67
5727,23212,19090.00
5728,23248,19093.33
5729,23280,19096.67
5730,23312,19100.00
5731,23344,19103.33
5732,23372,19106.67
5733,23392,19110.00
5734,23412,19113.33
5735,23436,19116.67
5736,23460,19120.00
5737,23480,19123.33
5738,23496,19126.67
5739,23512,19130.00
5740,23528,19133.33
5741,23552,19136.67
5742,23572,19140.00
5743,23596,19143.33
5744,23584,19146.67
5745,23492,19150.00
5746,23316,19153.33
5747,23120,19156.67
5748,22956,19160.00
5749,22868,19163.33
5750,22844,19166.67
5751,22856,19170.00
5752,22892,19173.33
5753,22932,19176.67
5754,22968,19180.00
5755,23000,19183.33
5756,23032,19186.67
5757,23068,19190.00
5758,23104,19193.33
5759,23128,19196.67
5760,23132,19200.00
5761,23128,19203.33
5762,23120,19206.67
5763,23112,19210.00
5764,23112,19213.33
5765,23124,19216.67
5766,23152,19220.00
5767,23180,19223.33
5768,23208,19226.67
5769,23240,19230.00
5770,23276,19233.33
5771,23312,19236.67
5772,23344,19240.00
5773,23372,19243.33
5774,23400,19246.67
5775,23424,19250.00
5776,23444,19253.33
5777,23460,19256.67
5778,23480,19260.00
5779,23492,19263.33
5780,23508,19266.67
5781,23528,19270.00
5782,23548,19273.33
5783,23564,19276.67
5784,23544,19280.00
5785,23436,19283.33
5786,23256,19286.67
5787,23068,19290.00
5788,22936,19293.33
5789,22864,19296.67
5790,22848,19300.00
5791,22872,19303.33
5792,22908,19306.67
5793,22952,19310.00
5794,22984,19313.33
5795,23020,19316.67
5796,23060,19320.00
5797,23104,19323.33
5798,23132,19326.67
5799,23152,19330.00
5800,23156,19333.33
5801,23144,19336.67
5802,23132,19340.00
5803,23128,19343.33
5804,23140,19346.67
5805,23160,19350.00
5806,23192,19353.33
5807,23224,19356.67
5808,23260,19360.00
5809,23300,19363.33
5810,23340,19366.67
5811,23376,19370.00
5812,23412,19373.33
5813,23440,19376.67
5814,23468,19380.00
5815,23492,19383.33
5816,23512,19386.67
5817,23532,19390.00
5818,23544,19393.33
5819,23560,19396.67
5820,23576,19400.00
5821,23596,19403.33
5822,23612,19406.67
5823,23584,19410.00
5824,23468,19413.33
5825,23276,19416.67
5826,23080,19420.00
5827,22928,19423.33
5828,22852,19426.67
5829,22832,19430.00
5830,22848,19433.33
5831,22880,19436.67
5832,22912,19440.00
5833,22940,19443.33
5834,22964,19446.67
5835,22992,19450.00
5836,23024,19453.33
5837,23060,19456.67
5838,23092,19460.00
5839,23108,19463.33
5840,23112,19466.67
5841,23112,19470.00
5842,23112,19473.33
5843,23116,19476.67
5844,23132,19480.00
5845,23160,19483.33
5846,23192,19486.67
5847,23224,19490.00
5848,23260,19493.33
5849,23292,19496.67
5850,23332,19500.00
5851,23368,19503.33
5852,23396,19506.67
5853,23424,19510.00
5854,23452,19513.33
5855,23472,19516.67
5856,23492,19520.00
5857,23512,19523.33
5858,23524,19526.67
5859,23548,19530.00
5860,23560,19533.33
5861,23588,19536.67
5862,23604,19540.00
5863,23584,19543.33
5864,23468,19546.67
5865,23284,19550.00
5866,23088,19553.33
5867,22940,19556.67
5868,22852,19560.00
5869,22832,19563.33
5870,22840,19566.67
5871,22872,19570.00
5872,22900,19573.33
5873,22924,19576.67
5874,22940,19580.00
5875,22952,19583.33
5876,22980,19586.67
5877,23012,19590.00
5878,23036,19593.33
5879,23056,19596.67
5880,23064,19600.00
5881,23064,19603.33
5882,23064,19606.67
5883,23072,19610.00
5884,23084,19613.33
5885,23108,19616.67
5886,23136,19620.00
5887,23168,19623.33
5888,23204,19626.67
5889,23240,19630.00
5890,23272,19633.33
5891,23304,19636.67
5892,23336,19640.00
5893,23360,19643.33
5894,23388,19646.67
5895,23412,19650.00
5896,23432,19653.33
5897,23456,19656.67
5898,23472,19660.00
5899,23496,19663.33
5900,23512,19666.67
5901,23532,19670.00
5902,23556,19673.33
5903,23576,19676.67
5904,23600,19680.00
5905,23604,19683.33
5906,23528,19686.67
5907,23364,19690.00
5908,23172,19693.33
5909,23000,19696.67
5910,22900,19700.00
5911,22864,19703.33
5912,22872,19706.67
5913,22896,19710.00
5914,22928,19713.33
5915,22956,19716.67
5916,22988,19720.00
5917,23016,19723.33
5918,23044,19726.67
5919,23084,19730.00
5920,23112,19733.33
5921,23124,19736.67
5922,23124,19740.00
5923,23120,19743.33
5924,23116,19746.67
5925,23116,19750.00
5926,23132,19753.33
5927,23156,19756.67
5928,23176,19760.00
5929,23208,19763.33
5930,23232,19766.67
5931,23268,19770.00
5932,23304,19773.33
5933,23336,19776.67
5934,23360,19780.00
5935,23392,19783.33
5936,23416,19786.67
5937,23432,19790.00
5938,23452,19793.33
5939,23464,19796.67
5940,23484,19800.00
5941,23500,19803.33
5942,23512,19806.67
5943,23532,19810.00
5944,23552,19813.33
5945,23576,19816.67
5946,23572,19820.00
5947,23496,19823.33
5948,23340,19826.67
5949,23156,19830.00
5950,23000,19833.33
5951,22908,19836.67
5952,22880,19840.00
5953,22892,19843.33
5954,22920,19846.67
5955,22956,19850.00
5956,22988,19853.33
5957,23020,19856.67
5958,23052,19860.00
5959,23088,19863.33
5960,23124,19866.67
5961,23152,19870.00
5962,23160,19873.33
5963,23152,19876.67
5964,23148,19880.00
5965,23144,19883.33
5966,23144,19886.67
5967,23164,19890.00
5968,23188,19893.33
5969,23220,19896.67
5970,23260,19900.00
5971,23292,19903.33
5972,23328,19906.67
5973,23364,19910.00
5974,23396,19913.33
5975,23424,19916.67
5976,23448,19920.00
5977,23472,19923.33
5978,23492,19926.67
5979,23512,19930.00
5980,23528,19933.33
5981,23544,19936.67
5982,23564,19940.00
5983,23580,19943.33
5984,23600,19946.67
5985,23616,19950.00
5986,23636,19953.33
5987,23656,19956.67
5988,23652,19960.00
5989,23572,19963.33
5990,23408,19966.67
5991,23200,19970.00
5992,23024,19973.33
5993,22912,19976.67
5994,22868,19980.00
5995,22864,19983.33
5996,22884,19986.67
5997,22916,19990.00
5998,22944,19993.33
5999,22968,19996.67
