Sample_Index,IR_Value,Timestamp_ms
0,24272,0.00
1,24280,20.06
2,24288,40.11
3,24296,60.17
4,24296,80.22
5,24304,100.28
6,24312,120.34
7,24320,140.39
8,24324,160.45
9,24328,180.51
10,24316,200.56
11,24300,220.62
12,24284,240.67
13,24264,260.73
14,24248,280.79
15,24236,300.84
16,24236,320.90
17,24244,340.96
18,24248,361.01
19,24244,381.07
20,24248,401.12
21,24248,421.18
22,24252,441.24
23,24256,461.29
24,24256,481.35
25,24252,501.41
26,24256,521.46
27,24256,541.52
28,24256,561.57
29,24256,581.63
30,24260,601.69
31,24264,621.74
32,24272,641.80
33,24276,661.85
34,24280,681.91
35,24284,701.97
36,24288,722.02
37,24296,742.08
38,24304,762.14
39,24308,782.19
40,24308,802.25
41,24308,822.30
42,24312,842.36
43,24320,862.42
44,24328,882.47
45,24336,902.53
46,24340,922.59
47,24340,942.64
48,24344,962.70
49,24356,982.75
50,24368,1002.81
51,24372,1022.87
52,24380,1042.92
53,24384,1062.98
54,24384,1083.04
55,24384,1103.09
56,24376,1123.15
57,24364,1143.20
58,24348,1163.26
59,24336,1183.32
60,24332,1203.37
61,24324,1223.43
62,24328,1243.48
63,24332,1263.54
64,24336,1283.60
65,24336,1303.65
66,24340,1323.71
67,24340,1343.77
68,24344,1363.82
69,24348,1383.88
70,24352,1403.93
71,24352,1423.99
72,24344,1444.05
73,24332,1464.10
74,24332,1484.16
75,24336,1504.22
76,24344,1524.27
77,24348,1544.33
78,24344,1564.38
79,24344,1584.44
80,24360,1604.50
81,24384,1624.55
82,24408,1644.61
83,24432,1664.67
84,24452,1684.72
85,24476,1704.78
86,24496,1724.83
87,24512,1744.89
88,24524,1764.95
89,24544,1785.00
90,24564,1805.06
91,24576,1825.12
92,24584,1845.17
93,24596,1865.23
94,24616,1885.28
95,24628,1905.34
96,24644,1925.40
97,24648,1945.45
98,24652,1965.51
99,24660,1985.56
100,24664,2005.62
101,24660,2025.68
102,24648,2045.73
103,24632,2065.79
104,24612,2085.85
105,24580,2105.90
106,24572,2125.96
107,24568,2146.01
108,24572,2166.07
109,24576,2186.13
110,24580,2206.18
111,24576,2226.24
112,24568,2246.30
113,24556,2266.35
114,24556,2286.41
115,24572,2306.46
116,24580,2326.52
117,24580,2346.58
118,24576,2366.63
119,24568,2386.69
120,24564,2406.75
121,24568,2426.80
122,24568,2446.86
123,24576,2466.91
124,24588,2486.97
125,24592,2507.03
126,24592,2527.08
127,24592,2547.14
128,24592,2567.19
129,24604,2587.25
130,24612,2607.31
131,24620,2627.36
132,24620,2647.42
133,24620,2667.48
134,24628,2687.53
135,24644,2707.59
136,24656,2727.64
137,24660,2747.70
138,24664,2767.76
139,24664,2787.81
140,24664,2807.87
141,24664,2827.93
142,24656,2847.98
143,24648,2868.04
144,24636,2888.09
145,24620,2908.15
146,24604,2928.21
147,24592,2948.26
148,24580,2968.32
149,24572,2988.38
150,24584,3008.43
151,24600,3028.49
152,24596,3048.54
153,24592,3068.60
154,24588,3088.66
155,24592,3108.71
156,24596,3128.77
157,24604,3148.82
158,24596,3168.88
159,24584,3188.94
160,24576,3208.99
161,24568,3229.05
162,24580,3249.11
163,24584,3269.16
164,24584,3289.22
165,24588,3309.27
166,24588,3329.33
167,24592,3349.39
168,24612,3369.44
169,24624,3389.50
170,24632,3409.56
171,24636,3429.61
172,24644,3449.67
173,24648,3469.72
174,24648,3489.78
175,24664,3509.84
176,24660,3529.89
177,24676,3549.95
178,24672,3570.01
179,24668,3590.06
180,24648,3610.12
181,24628,3630.17
182,24608,3650.23
183,24596,3670.29
184,24588,3690.34
185,24576,3710.40
186,24572,3730.45
187,24572,3750.51
188,24576,3770.57
189,24576,3790.62
190,24584,3810.68
191,24592,3830.74
192,24584,3850.79
193,24584,3870.85
194,24580,3890.90
195,24576,3910.96
196,24572,3931.02
197,24568,3951.07
198,24568,3971.13
199,24568,3991.19
200,24568,4011.24
201,24560,4031.30
202,24556,4051.35
203,24552,4071.41
204,24548,4091.47
205,24552,4111.52
206,24552,4131.58
207,24552,4151.64
208,24548,4171.69
209,24532,4191.75
210,24516,4211.80
211,24492,4231.86
212,24468,4251.92
213,24444,4271.97
214,24424,4292.03
215,24408,4312.09
216,24400,4332.14
217,24392,4352.20
218,24392,4372.25
219,24388,4392.31
220,24392,4412.37
221,24396,4432.42
222,24400,4452.48
223,24400,4472.53
224,24396,4492.59
225,24388,4512.65
226,24384,4532.70
227,24376,4552.76
228,24376,4572.82
229,24372,4592.87
230,24372,4612.93
231,24376,4632.98
232,24384,4653.04
233,24388,4673.10
234,24396,4693.15
235,24408,4713.21
236,24412,4733.27
237,24420,4753.32
238,24416,4773.38
239,24400,4793.43
240,24372,4813.49
241,24332,4833.55
242,24288,4853.60
243,24248,4873.66
244,24220,4893.72
245,24200,4913.77
246,24188,4933.83
247,24180,4953.88
248,24184,4973.94
249,24188,4994.00
250,24200,5014.05
251,24204,5034.11
252,24212,5054.16
253,24212,5074.22
254,24208,5094.28
255,24200,5114.33
256,24200,5134.39
257,24200,5154.45
258,24200,5174.50
259,24204,5194.56
260,24212,5214.61
261,24220,5234.67
262,24228,5254.73
263,24240,5274.78
264,24244,5294.84
265,24256,5314.90
266,24264,5334.95
267,24272,5355.01
268,24280,5375.06
269,24280,5395.12
270,24256,5415.18
271,24216,5435.23
272,24172,5455.29
273,24120,5475.35
274,24076,5495.40
275,24048,5515.46
276,24032,5535.51
277,24020,5555.57
278,24008,5575.63
279,24000,5595.68
280,23996,5615.74
281,23996,5635.79
282,24000,5655.85
283,24004,5675.91
284,24004,5695.96
285,24008,5716.02
286,24012,5736.08
287,24012,5756.13
288,24008,5776.19
289,24016,5796.24
290,24024,5816.30
291,24032,5836.36
292,24036,5856.41
293,24048,5876.47
294,24056,5896.53
295,24064,5916.58
296,24080,5936.64
297,24096,5956.69
298,24108,5976.75
299,24120,5996.81
300,24132,6016.86
301,24148,6036.92
302,24160,6056.98
303,24172,6077.03
304,24188,6097.09
305,24200,6117.14
306,24216,6137.20
307,24232,6157.26
308,24252,6177.31
309,24268,6197.37
310,24284,6217.42
311,24300,6237.48
312,24316,6257.54
313,24332,6277.59
314,24348,6297.65
315,24368,6317.71
316,24376,6337.76
317,24372,6357.82
318,24352,6377.87
319,24324,6397.93
320,24288,6417.99
321,24264,6438.04
322,24248,6458.10
323,24236,6478.16
324,24236,6498.21
325,24240,6518.27
326,24240,6538.32
327,24244,6558.38
328,24244,6578.44
329,24248,6598.49
330,24252,6618.55
331,24260,6638.61
332,24264,6658.66
333,24268,6678.72
334,24276,6698.77
335,24280,6718.83
336,24288,6738.89
337,24296,6758.94
338,24308,6779.00
339,24316,6799.06
340,24328,6819.11
341,24336,6839.17
342,24348,6859.22
343,24360,6879.28
344,24372,6899.34
345,24388,6919.39
346,24400,6939.45
347,24416,6959.50
348,24428,6979.56
349,24436,6999.62
350,24448,7019.67
351,24460,7039.73
352,24472,7059.79
353,24488,7079.84
354,24500,7099.90
355,24512,7119.95
356,24528,7140.01
357,24536,7160.07
358,24548,7180.12
359,24560,7200.18
360,24572,7220.24
361,24588,7240.29
362,24600,7260.35
363,24616,7280.40
364,24628,7300.46
365,24640,7320.52
366,24652,7340.57
367,24660,7360.63
368,24668,7380.69
369,24668,7400.74
370,24660,7420.80
371,24652,7440.85
372,24644,7460.91
373,24636,7480.97
374,24640,7501.02
375,24648,7521.08
376,24648,7541.13
377,24656,7561.19
378,24660,7581.25
379,24664,7601.30
380,24668,7621.36
381,24676,7641.42
382,24684,7661.47
383,24688,7681.53
384,24696,7701.58
385,24700,7721.64
386,24704,7741.70
387,24708,7761.75
388,24712,7781.81
389,24720,7801.87
390,24728,7821.92
391,24740,7841.98
392,24748,7862.03
393,24756,7882.09
394,24768,7902.15
395,24776,7922.20
396,24784,7942.26
397,24788,7962.32
398,24796,7982.37
399,24804,8002.43
400,24812,8022.48
401,24820,8042.54
402,24828,8062.60
403,24836,8082.65
404,24840,8102.71
405,24848,8122.76
406,24856,8142.82
407,24864,8162.88
408,24872,8182.93
409,24876,8202.99
410,24880,8223.05
411,24888,8243.10
412,24896,8263.16
413,24908,8283.21
414,24912,8303.27
415,24908,8323.33
416,24900,8343.38
417,24892,8363.44
418,24888,8383.50
419,24888,8403.55
420,24892,8423.61
421,24900,8443.66
422,24904,8463.72
423,24912,8483.78
424,24916,8503.83
425,24920,8523.89
426,24924,8543.95
427,24928,8564.00
428,24928,8584.06
429,24932,8604.11
430,24932,8624.17
431,24936,8644.23
432,24936,8664.28
433,24944,8684.34
434,24948,8704.39
435,24956,8724.45
436,24960,8744.51
437,24964,8764.56
438,24968,8784.62
439,24972,8804.68
440,24980,8824.73
441,24988,8844.79
442,24988,8864.84
443,24996,8884.90
444,24996,8904.96
445,25000,8925.01
446,25004,8945.07
447,25004,8965.13
448,25008,8985.18
449,25012,9005.24
450,25012,9025.29
451,25016,9045.35
452,25020,9065.41
453,25028,9085.46
454,25032,9105.52
455,25032,9125.58
456,25036,9145.63
457,25036,9165.69
458,25028,9185.74
459,25020,9205.80
460,25008,9225.86
461,25004,9245.91
462,24996,9265.97
463,24996,9286.03
464,24996,9306.08
465,24992,9326.14
466,24996,9346.19
467,24996,9366.25
468,24996,9386.31
469,24996,9406.36
470,24988,9426.42
471,24980,9446.47
472,24976,9466.53
473,24972,9486.59
474,24968,9506.64
475,24972,9526.70
476,24968,9546.76
477,24968,9566.81
478,24968,9586.87
479,24968,9606.92
480,24968,9626.98
481,24968,9647.04
482,24968,9667.09
483,24968,9687.15
484,24956,9707.21
485,24956,9727.26
486,24952,9747.32
487,24952,9767.37
488,24956,9787.43
489,24956,9807.49
490,24948,9827.54
491,24940,9847.60
492,24924,9867.66
493,24916,9887.71
494,24908,9907.77
495,24892,9927.82
496,24884,9947.88
497,24880,9967.94
498,24868,9987.99
499,24864,10008.05
500,24860,10028.10
501,24844,10048.16
502,24832,10068.22
503,24820,10088.27
504,24812,10108.33
505,24808,10128.39
506,24820,10148.44
507,24832,10168.50
508,24848,10188.55
509,24864,10208.61
510,24876,10228.67
511,24880,10248.72
512,24880,10268.78
513,24888,10288.84
514,24880,10308.89
515,24884,10328.95
516,24836,10349.00
517,24776,10369.06
518,24700,10389.12
519,24628,10409.17
520,24576,10429.23
521,24536,10449.29
522,24500,10469.34
523,24472,10489.40
524,24456,10509.45
525,24440,10529.51
526,24424,10549.57
527,24408,10569.62
528,24392,10589.68
529,24376,10609.73
530,24364,10629.79
531,24368,10649.85
532,24388,10669.90
533,24420,10689.96
534,24452,10710.02
535,24476,10730.07
536,24496,10750.13
537,24520,10770.18
538,24532,10790.24
539,24540,10810.30
540,24544,10830.35
541,24552,10850.41
542,24560,10870.47
543,24564,10890.52
544,24556,10910.58
545,24548,10930.63
546,24560,10950.69
547,24580,10970.75
548,24596,10990.80
549,24596,11010.86
550,24584,11030.92
551,24580,11050.97
552,24584,11071.03
553,24588,11091.08
554,24596,11111.14
555,24596,11131.20
556,24608,11151.25
557,24624,11171.31
558,24632,11191.36
559,24640,11211.42
560,24648,11231.48
561,24660,11251.53
562,24664,11271.59
563,24668,11291.65
564,24672,11311.70
565,24676,11331.76
566,24680,11351.81
567,24688,11371.87
568,24696,11391.93
569,24704,11411.98
570,24716,11432.04
571,24720,11452.10
572,24728,11472.15
573,24736,11492.21
574,24744,11512.26
575,24752,11532.32
576,24756,11552.38
577,24764,11572.43
578,24772,11592.49
579,24776,11612.55
580,24780,11632.60
581,24788,11652.66
582,24788,11672.71
583,24792,11692.77
584,24796,11712.83
585,24800,11732.88
586,24804,11752.94
587,24808,11772.99
588,24812,11793.05
589,24820,11813.11
590,24824,11833.16
591,24824,11853.22
592,24820,11873.28
593,24816,11893.33
594,24812,11913.39
595,24812,11933.44
596,24812,11953.50
597,24816,11973.56
598,24820,11993.61
599,24824,12013.67
600,24832,12033.73
601,24832,12053.78
602,24836,12073.84
603,24840,12093.89
604,24844,12113.95
605,24848,12134.01
606,24856,12154.06
607,24856,12174.12
608,24864,12194.18
609,24864,12214.23
610,24864,12234.29
611,24868,12254.34
612,24868,12274.40
613,24872,12294.46
614,24880,12314.51
615,24892,12334.57
616,24900,12354.63
617,24908,12374.68
618,24912,12394.74
619,24920,12414.79
620,24932,12434.85
621,24936,12454.91
622,24940,12474.96
623,24944,12495.02
624,24952,12515.07
625,24956,12535.13
626,24964,12555.19
627,24968,12575.24
628,24972,12595.30
629,24968,12615.36
630,24960,12635.41
631,24948,12655.47
632,24940,12675.52
633,24936,12695.58
634,24932,12715.64
635,24928,12735.69
636,24928,12755.75
637,24932,12775.81
638,24932,12795.86
639,24936,12815.92
640,24936,12835.97
641,24936,12856.03
642,24936,12876.09
643,24932,12896.14
644,24928,12916.20
645,24924,12936.26
646,24920,12956.31
647,24920,12976.37
648,24916,12996.42
649,24916,13016.48
650,24912,13036.54
651,24912,13056.59
652,24908,13076.65
653,24908,13096.70
654,24908,13116.76
655,24908,13136.82
656,24908,13156.87
657,24908,13176.93
658,24908,13196.99
659,24912,13217.04
660,24912,13237.10
661,24916,13257.15
662,24916,13277.21
663,24920,13297.27
664,24924,13317.32
665,24916,13337.38
666,24908,13357.44
667,24896,13377.49
668,24888,13397.55
669,24880,13417.60
670,24876,13437.66
671,24872,13457.72
672,24872,13477.77
673,24876,13497.83
674,24876,13517.89
675,24876,13537.94
676,24880,13558.00
677,24880,13578.05
678,24884,13598.11
679,24884,13618.17
680,24880,13638.22
681,24880,13658.28
682,24880,13678.33
683,24880,13698.39
684,24884,13718.45
685,24892,13738.50
686,24900,13758.56
687,24904,13778.62
688,24908,13798.67
689,24912,13818.73
690,24912,13838.78
691,24916,13858.84
692,24920,13878.90
693,24920,13898.95
694,24928,13919.01
695,24932,13939.07
696,24936,13959.12
697,24940,13979.18
698,24940,13999.23
699,24944,14019.29
700,24932,14039.35
701,24920,14059.40
702,24904,14079.46
703,24888,14099.52
704,24872,14119.57
705,24860,14139.63
706,24852,14159.68
707,24844,14179.74
708,24836,14199.80
709,24828,14219.85
710,24820,14239.91
711,24820,14259.96
712,24816,14280.02
713,24816,14300.08
714,24816,14320.13
715,24812,14340.19
716,24804,14360.25
717,24800,14380.30
718,24792,14400.36
719,24788,14420.41
720,24784,14440.47
721,24784,14460.53
722,24784,14480.58
723,24784,14500.64
724,24784,14520.70
725,24788,14540.75
726,24788,14560.81
727,24784,14580.86
728,24784,14600.92
729,24784,14620.98
730,24780,14641.03
731,24784,14661.09
732,24780,14681.15
733,24780,14701.20
734,24784,14721.26
735,24780,14741.31
736,24776,14761.37
737,24772,14781.43
738,24768,14801.48
739,24760,14821.54
740,24756,14841.60
741,24744,14861.65
742,24728,14881.71
743,24708,14901.76
744,24688,14921.82
745,24668,14941.88
746,24648,14961.93
747,24640,14981.99
748,24632,15002.04
749,24628,15022.10
750,24624,15042.16
751,24624,15062.21
752,24624,15082.27
753,24624,15102.33
754,24624,15122.38
755,24620,15142.44
756,24612,15162.49
757,24608,15182.55
758,24604,15202.61
759,24600,15222.66
760,24596,15242.72
761,24596,15262.78
762,24600,15282.83
763,24600,15302.89
764,24604,15322.94
765,24604,15343.00
766,24604,15363.06
767,24608,15383.11
768,24608,15403.17
769,24608,15423.23
770,24608,15443.28
771,24612,15463.34
772,24616,15483.39
773,24620,15503.45
774,24624,15523.51
775,24632,15543.56
776,24636,15563.62
777,24640,15583.67
778,24644,15603.73
779,24644,15623.79
780,24636,15643.84
781,24620,15663.90
782,24604,15683.96
783,24588,15704.01
784,24576,15724.07
785,24564,15744.12
786,24560,15764.18
787,24556,15784.24
788,24560,15804.29
789,24564,15824.35
790,24564,15844.41
791,24560,15864.46
792,24552,15884.52
793,24544,15904.57
794,24532,15924.63
795,24520,15944.69
796,24504,15964.74
797,24492,15984.80
798,24480,16004.86
799,24468,16024.91
800,24460,16044.97
801,24456,16065.02
802,24452,16085.08
803,24452,16105.14
804,24444,16125.19
805,24440,16145.25
806,24436,16165.30
807,24428,16185.36
808,24428,16205.42
809,24428,16225.47
810,24428,16245.53
811,24428,16265.59
812,24428,16285.64
813,24428,16305.70
814,24428,16325.75
815,24432,16345.81
816,24436,16365.87
817,24436,16385.92
818,24424,16405.98
819,24408,16426.04
820,24384,16446.09
821,24360,16466.15
822,24348,16486.20
823,24336,16506.26
824,24336,16526.32
825,24336,16546.37
826,24352,16566.43
827,24376,16586.49
828,24392,16606.54
829,24416,16626.60
830,24432,16646.65
831,24444,16666.71
832,24452,16686.77
833,24460,16706.82
834,24464,16726.88
835,24464,16746.93
836,24464,16766.99
837,24468,16787.05
838,24472,16807.10
839,24476,16827.16
840,24480,16847.22
841,24488,16867.27
842,24492,16887.33
843,24500,16907.38
844,24512,16927.44
845,24520,16947.50
846,24532,16967.55
847,24544,16987.61
848,24556,17007.67
849,24572,17027.72
850,24584,17047.78
851,24592,17067.83
852,24600,17087.89
853,24604,17107.95
854,24608,17128.00
855,24616,17148.06
856,24624,17168.12
857,24628,17188.17
858,24624,17208.23
859,24612,17228.28
860,24592,17248.34
861,24572,17268.40
862,24552,17288.45
863,24540,17308.51
864,24536,17328.57
865,24536,17348.62
866,24536,17368.68
867,24540,17388.73
868,24536,17408.79
869,24536,17428.85
870,24536,17448.90
871,24532,17468.96
872,24528,17489.01
873,24524,17509.07
874,24520,17529.13
875,24520,17549.18
876,24520,17569.24
877,24524,17589.30
878,24528,17609.35
879,24532,17629.41
880,24532,17649.46
881,24528,17669.52
882,24532,17689.58
883,24532,17709.63
884,24540,17729.69
885,24544,17749.75
886,24548,17769.80
887,24556,17789.86
888,24564,17809.91
889,24568,17829.97
890,24572,17850.03
891,24572,17870.08
892,24572,17890.14
893,24572,17910.20
894,24580,17930.25
895,24584,17950.31
896,24580,17970.36
897,24564,17990.42
898,24540,18010.48
899,24512,18030.53
900,24484,18050.59
901,24464,18070.64
902,24456,18090.70
903,24452,18110.76
904,24452,18130.81
905,24456,18150.87
906,24460,18170.93
907,24464,18190.98
908,24464,18211.04
909,24468,18231.09
910,24468,18251.15
911,24468,18271.21
912,24468,18291.26
913,24468,18311.32
914,24468,18331.38
915,24468,18351.43
916,24468,18371.49
917,24472,18391.54
918,24472,18411.60
919,24476,18431.66
920,24484,18451.71
921,24488,18471.77
922,24496,18491.83
923,24500,18511.88
924,24504,18531.94
925,24508,18551.99
926,24512,18572.05
927,24516,18592.11
928,24524,18612.16
929,24524,18632.22
930,24520,18652.27
931,24508,18672.33
932,24488,18692.39
933,24460,18712.44
934,24432,18732.50
935,24412,18752.56
936,24404,18772.61
937,24400,18792.67
938,24396,18812.72
939,24396,18832.78
940,24400,18852.84
941,24404,18872.89
942,24404,18892.95
943,24400,18913.01
944,24392,18933.06
945,24380,18953.12
946,24368,18973.17
947,24348,18993.23
948,24328,19013.29
949,24304,19033.34
950,24280,19053.40
951,24260,19073.46
952,24244,19093.51
953,24236,19113.57
954,24232,19133.62
955,24228,19153.68
956,24224,19173.74
957,24228,19193.79
958,24228,19213.85
959,24228,19233.90
960,24228,19253.96
961,24232,19274.02
962,24224,19294.07
963,24204,19314.13
964,24180,19334.19
965,24148,19354.24
966,24116,19374.30
967,24096,19394.35
968,24080,19414.41
969,24076,19434.47
970,24076,19454.52
971,24084,19474.58
972,24092,19494.64
973,24096,19514.69
974,24096,19534.75
975,24100,19554.80
976,24104,19574.86
977,24100,19594.92
978,24100,19614.97
979,24100,19635.03
980,24096,19655.09
981,24096,19675.14
982,24092,19695.20
983,24096,19715.25
984,24104,19735.31
985,24112,19755.37
986,24124,19775.42
987,24132,19795.48
988,24140,19815.54
989,24152,19835.59
990,24160,19855.65
991,24168,19875.70
992,24172,19895.76
993,24184,19915.82
994,24192,19935.87
995,24188,19955.93
996,24172,19975.98
997,24140,19996.04
998,24104,20016.10
999,24072,20036.15
1000,24044,20056.21
1001,24024,20076.27
1002,24020,20096.32
1003,24016,20116.38
1004,24020,20136.43
1005,24024,20156.49
1006,24024,20176.55
1007,24024,20196.60
1008,24028,20216.66
1009,24028,20236.72
1010,24032,20256.77
1011,24024,20276.83
1012,24024,20296.88
1013,24020,20316.94
1014,24024,20337.00
1015,24028,20357.05
1016,24032,20377.11
1017,24036,20397.17
1018,24044,20417.22
1019,24052,20437.28
1020,24060,20457.33
1021,24072,20477.39
1022,24084,20497.45
1023,24096,20517.50
1024,24108,20537.56
1025,24116,20557.61
1026,24124,20577.67
1027,24136,20597.73
1028,24144,20617.78
1029,24160,20637.84
1030,24168,20657.90
1031,24168,20677.95
1032,24152,20698.01
1033,24124,20718.06
1034,24088,20738.12
1035,24056,20758.18
1036,24032,20778.23
1037,24016,20798.29
1038,24012,20818.35
1039,24008,20838.40
1040,24016,20858.46
1041,24016,20878.51
1042,24020,20898.57
1043,24028,20918.63
1044,24032,20938.68
1045,24028,20958.74
1046,24032,20978.80
1047,24028,20998.85
1048,24024,21018.91
1049,24024,21038.96
1050,24028,21059.02
1051,24036,21079.08
1052,24044,21099.13
1053,24052,21119.19
1054,24064,21139.24
1055,24072,21159.30
1056,24084,21179.36
1057,24092,21199.41
1058,24100,21219.47
1059,24108,21239.53
1060,24116,21259.58
1061,24132,21279.64
1062,24144,21299.69
1063,24156,21319.75
1064,24164,21339.81
1065,24176,21359.86
1066,24184,21379.92
1067,24196,21399.98
1068,24204,21420.03
1069,24212,21440.09
1070,24224,21460.14
1071,24224,21480.20
1072,24212,21500.26
1073,24180,21520.31
1074,24140,21540.37
1075,24108,21560.43
1076,24076,21580.48
1077,24064,21600.54
1078,24064,21620.59
1079,24064,21640.65
1080,24068,21660.71
1081,24072,21680.76
1082,24076,21700.82
1083,24080,21720.87
1084,24084,21740.93
1085,24088,21760.99
1086,24092,21781.04
1087,24092,21801.10
1088,24092,21821.16
1089,24096,21841.21
1090,24100,21861.27
1091,24104,21881.32
1092,24108,21901.38
1093,24112,21921.44
1094,24120,21941.49
1095,24128,21961.55
1096,24136,21981.61
1097,24144,22001.66
1098,24156,22021.72
1099,24164,22041.77
1100,24176,22061.83
1101,24188,22081.89
1102,24200,22101.94
1103,24208,22122.00
1104,24216,22142.06
1105,24224,22162.11
1106,24232,22182.17
1107,24248,22202.22
1108,24256,22222.28
1109,24264,22242.34
1110,24272,22262.39
1111,24272,22282.45
1112,24260,22302.51
1113,24244,22322.56
1114,24212,22342.62
1115,24176,22362.67
1116,24156,22382.73
1117,24144,22402.79
1118,24140,22422.84
1119,24144,22442.90
1120,24148,22462.95
1121,24156,22483.01
1122,24160,22503.07
1123,24168,22523.12
1124,24172,22543.18
1125,24180,22563.24
1126,24184,22583.29
1127,24184,22603.35
1128,24184,22623.40
1129,24184,22643.46
1130,24180,22663.52
1131,24184,22683.57
1132,24184,22703.63
1133,24196,22723.69
1134,24204,22743.74
1135,24216,22763.80
1136,24224,22783.85
1137,24232,22803.91
1138,24236,22823.97
1139,24240,22844.02
1140,24244,22864.08
1141,24252,22884.14
1142,24260,22904.19
1143,24268,22924.25
1144,24280,22944.30
1145,24284,22964.36
1146,24292,22984.42
1147,24296,23004.47
1148,24300,23024.53
1149,24284,23044.58
1150,24264,23064.64
1151,24224,23084.70
1152,24188,23104.75
1153,24156,23124.81
1154,24140,23144.87
1155,24128,23164.92
1156,24128,23184.98
1157,24132,23205.03
1158,24136,23225.09
1159,24144,23245.15
1160,24152,23265.20
1161,24160,23285.26
1162,24164,23305.32
1163,24168,23325.37
1164,24172,23345.43
1165,24172,23365.48
1166,24172,23385.54
1167,24168,23405.60
1168,24164,23425.65
1169,24164,23445.71
1170,24160,23465.77
1171,24164,23485.82
1172,24168,23505.88
1173,24172,23525.93
1174,24180,23545.99
1175,24188,23566.05
1176,24196,23586.10
1177,24204,23606.16
1178,24216,23626.21
1179,24224,23646.27
1180,24236,23666.33
1181,24244,23686.38
1182,24256,23706.44
1183,24264,23726.50
1184,24264,23746.55
1185,24256,23766.61
1186,24232,23786.66
1187,24192,23806.72
1188,24148,23826.78
1189,24104,23846.83
1190,24072,23866.89
1191,24056,23886.95
1192,24052,23907.00
1193,24052,23927.06
1194,24052,23947.11
1195,24060,23967.17
1196,24064,23987.23
1197,24068,24007.28
1198,24072,24027.34
1199,24076,24047.40
1200,24080,24067.45
1201,24076,24087.51
1202,24072,24107.56
1203,24068,24127.62
1204,24072,24147.68
1205,24072,24167.73
1206,24076,24187.79
1207,24084,24207.84
1208,24088,24227.90
1209,24096,24247.96
1210,24104,24268.01
1211,24112,24288.07
1212,24124,24308.13
1213,24132,24328.18
1214,24144,24348.24
1215,24148,24368.29
1216,24160,24388.35
1217,24176,24408.41
1218,24184,24428.46
1219,24196,24448.52
1220,24204,24468.58
1221,24208,24488.63
1222,24192,24508.69
1223,24156,24528.74
1224,24112,24548.80
1225,24064,24568.86
1226,24028,24588.91
1227,24004,24608.97
1228,23996,24629.03
1229,23992,24649.08
1230,23992,24669.14
1231,23996,24689.19
1232,24008,24709.25
1233,24012,24729.31
1234,24016,24749.36
1235,24016,24769.42
1236,24012,24789.47
1237,24012,24809.53
1238,24008,24829.59
1239,24004,24849.64
1240,24004,24869.70
1241,24008,24889.76
1242,24008,24909.81
1243,24012,24929.87
1244,24020,24949.92
1245,24024,24969.98
1246,24032,24990.04
1247,24040,25010.09
1248,24052,25030.15
1249,24064,25050.21
1250,24072,25070.26
1251,24084,25090.32
1252,24092,25110.37
1253,24100,25130.43
1254,24112,25150.49
1255,24120,25170.54
1256,24128,25190.60
1257,24128,25210.66
1258,24104,25230.71
1259,24068,25250.77
1260,24024,25270.82
1261,23980,25290.88
1262,23948,25310.94
1263,23928,25330.99
1264,23916,25351.05
1265,23920,25371.11
1266,23924,25391.16
1267,23928,25411.22
1268,23936,25431.27
1269,23952,25451.33
1270,23960,25471.39
1271,23968,25491.44
1272,23972,25511.50
1273,23968,25531.55
1274,23968,25551.61
1275,23964,25571.67
1276,23964,25591.72
1277,23960,25611.78
1278,23964,25631.84
1279,23968,25651.89
1280,23976,25671.95
1281,23984,25692.00
1282,23992,25712.06
1283,24004,25732.12
1284,24008,25752.17
1285,24012,25772.23
1286,24016,25792.29
1287,24024,25812.34
1288,24032,25832.40
1289,24044,25852.45
1290,24052,25872.51
1291,24060,25892.57
1292,24052,25912.62
1293,24028,25932.68
1294,23992,25952.74
1295,23948,25972.79
1296,23912,25992.85
1297,23884,26012.90
1298,23876,26032.96
1299,23872,26053.02
1300,23884,26073.07
1301,23892,26093.13
1302,23904,26113.18
1303,23916,26133.24
1304,23920,26153.30
1305,23928,26173.35
1306,23924,26193.41
1307,23924,26213.47
1308,23920,26233.52
1309,23916,26253.58
1310,23912,26273.63
1311,23912,26293.69
1312,23916,26313.75
1313,23916,26333.80
1314,23920,26353.86
1315,23928,26373.92
1316,23940,26393.97
1317,23952,26414.03
1318,23968,26434.08
1319,23980,26454.14
1320,23992,26474.20
1321,24000,26494.25
1322,24008,26514.31
1323,24016,26534.37
1324,24004,26554.42
1325,23984,26574.48
1326,23948,26594.53
1327,23912,26614.59
1328,23880,26634.65
1329,23860,26654.70
1330,23852,26674.76
1331,23852,26694.81
1332,23856,26714.87
1333,23872,26734.93
1334,23892,26754.98
1335,23908,26775.04
1336,23924,26795.10
1337,23928,26815.15
1338,23928,26835.21
1339,23924,26855.26
1340,23920,26875.32
1341,23920,26895.38
1342,23920,26915.43
1343,23924,26935.49
1344,23932,26955.55
1345,23944,26975.60
1346,23960,26995.66
1347,23972,27015.71
1348,23988,27035.77
1349,24000,27055.83
1350,24016,27075.88
1351,24024,27095.94
1352,24036,27116.00
1353,24044,27136.05
1354,24048,27156.11
1355,24036,27176.16
1356,24008,27196.22
1357,23976,27216.28
1358,23944,27236.33
1359,23916,27256.39
1360,23896,27276.44
1361,23892,27296.50
1362,23892,27316.56
1363,23896,27336.61
1364,23904,27356.67
1365,23912,27376.73
1366,23920,27396.78
1367,23932,27416.84
1368,23936,27436.89
1369,23944,27456.95
1370,23944,27477.01
1371,23948,27497.06
1372,23952,27517.12
1373,23968,27537.18
1374,23980,27557.23
1375,23996,27577.29
1376,24012,27597.34
1377,24028,27617.40
1378,24040,27637.46
1379,24052,27657.51
1380,24064,27677.57
1381,24076,27697.63
1382,24092,27717.68
1383,24112,27737.74
1384,24132,27757.79
1385,24148,27777.85
1386,24160,27797.91
1387,24164,27817.96
1388,24164,27838.02
1389,24152,27858.08
1390,24128,27878.13
1391,24104,27898.19
1392,24088,27918.24
1393,24084,27938.30
1394,24084,27958.36
1395,24088,27978.41
1396,24096,27998.47
1397,24096,28018.52
1398,24100,28038.58
1399,24100,28058.64
1400,24104,28078.69
1401,24112,28098.75
1402,24124,28118.81
1403,24128,28138.86
1404,24132,28158.92
1405,24128,28178.97
1406,24128,28199.03
1407,24132,28219.09
1408,24140,28239.14
1409,24156,28259.20
1410,24172,28279.26
1411,24176,28299.31
1412,24188,28319.37
1413,24200,28339.42
1414,24220,28359.48
1415,24244,28379.54
1416,24268,28399.59
1417,24272,28419.65
1418,24276,28439.71
1419,24280,28459.76
1420,24292,28479.82
1421,24304,28499.87
1422,24328,28519.93
1423,24352,28539.99
1424,24372,28560.04
1425,24376,28580.10
1426,24372,28600.15
1427,24356,28620.21
1428,24336,28640.27
1429,24324,28660.32
1430,24316,28680.38
1431,24320,28700.44
1432,24340,28720.49
1433,24356,28740.55
1434,24372,28760.60
1435,24376,28780.66
1436,24368,28800.72
1437,24352,28820.77
1438,24344,28840.83
1439,24344,28860.89
1440,24348,28880.94
1441,24352,28901.00
1442,24356,28921.05
1443,24352,28941.11
1444,24348,28961.17
1445,24340,28981.22
1446,24336,29001.28
1447,24332,29021.34
1448,24336,29041.39
1449,24344,29061.45
1450,24352,29081.50
1451,24356,29101.56
1452,24364,29121.62
1453,24380,29141.67
1454,24400,29161.73
1455,24436,29181.78
1456,24436,29201.84
1457,24432,29221.90
1458,24452,29241.95
1459,24472,29262.01
1460,24508,29282.07
1461,24540,29302.12
1462,24556,29322.18
1463,24560,29342.23
1464,24544,29362.29
1465,24528,29382.35
1466,24512,29402.40
1467,24504,29422.46
1468,24508,29442.52
1469,24512,29462.57
1470,24512,29482.63
1471,24512,29502.68
1472,24504,29522.74
1473,24496,29542.80
1474,24492,29562.85
1475,24484,29582.91
1476,24484,29602.97
1477,24480,29623.02
1478,24476,29643.08
1479,24468,29663.13
1480,24456,29683.19
1481,24448,29703.25
1482,24444,29723.30
1483,24460,29743.36
1484,24472,29763.41
1485,24480,29783.47
1486,24484,29803.53
1487,24480,29823.58
1488,24472,29843.64
1489,24460,29863.70
1490,24456,29883.75
1491,24448,29903.81
1492,24444,29923.86
1493,24436,29943.92
1494,24432,29963.98
1495,24432,29984.03
1496,24432,30004.09
1497,24436,30024.15
1498,24428,30044.20
1499,24416,30064.26
1500,24396,30084.31
1501,24376,30104.37
1502,24356,30124.43
1503,24348,30144.48
1504,24340,30164.54
1505,24340,30184.60
1506,24344,30204.65
1507,24352,30224.71
1508,24364,30244.76
1509,24376,30264.82
1510,24384,30284.88
1511,24380,30304.93
1512,24380,30324.99
1513,24384,30345.05
1514,24392,30365.10
1515,24400,30385.16
1516,24404,30405.21
1517,24408,30425.27
1518,24404,30445.33
1519,24408,30465.38
1520,24412,30485.44
1521,24428,30505.49
1522,24448,30525.55
1523,24468,30545.61
1524,24472,30565.66
1525,24476,30585.72
1526,24492,30605.78
1527,24516,30625.83
1528,24544,30645.89
1529,24576,30665.94
1530,24608,30686.00
1531,24640,30706.06
1532,24648,30726.11
1533,24644,30746.17
1534,24628,30766.23
1535,24612,30786.28
1536,24604,30806.34
1537,24596,30826.39
1538,24592,30846.45
1539,24592,30866.51
1540,24600,30886.56
1541,24612,30906.62
1542,24624,30926.68
1543,24628,30946.73
1544,24616,30966.79
1545,24608,30986.84
1546,24604,31006.90
1547,24596,31026.96
1548,24592,31047.01
1549,24584,31067.07
1550,24584,31087.12
1551,24584,31107.18
1552,24588,31127.24
1553,24596,31147.29
1554,24604,31167.35
1555,24612,31187.41
1556,24616,31207.46
1557,24624,31227.52
1558,24628,31247.57
1559,24636,31267.63
1560,24644,31287.69
1561,24648,31307.74
1562,24652,31327.80
1563,24656,31347.86
1564,24664,31367.91
1565,24676,31387.97
1566,24688,31408.02
1567,24692,31428.08
1568,24684,31448.14
1569,24668,31468.19
1570,24644,31488.25
1571,24628,31508.31
1572,24620,31528.36
1573,24612,31548.42
1574,24620,31568.47
1575,24632,31588.53
1576,24648,31608.59
1577,24660,31628.64
1578,24668,31648.70
1579,24676,31668.75
1580,24684,31688.81
1581,24696,31708.87
1582,24712,31728.92
1583,24728,31748.98
1584,24732,31769.04
1585,24732,31789.09
1586,24728,31809.15
1587,24724,31829.20
1588,24720,31849.26
1589,24728,31869.32
1590,24736,31889.37
1591,24752,31909.43
1592,24768,31929.49
1593,24780,31949.54
1594,24792,31969.60
1595,24796,31989.65
1596,24800,32009.71
1597,24808,32029.77
1598,24816,32049.82
1599,24828,32069.88
1600,24840,32089.94
1601,24844,32109.99
1602,24852,32130.05
1603,24852,32150.10
1604,24840,32170.16
1605,24820,32190.22
1606,24804,32210.27
1607,24784,32230.33
1608,24768,32250.38
1609,24756,32270.44
1610,24744,32290.50
1611,24740,32310.55
1612,24732,32330.61
1613,24728,32350.67
1614,24724,32370.72
1615,24720,32390.78
1616,24716,32410.83
1617,24712,32430.89
1618,24712,32450.95
1619,24712,32471.00
1620,24712,32491.06
1621,24708,32511.12
1622,24704,32531.17
1623,24704,32551.23
1624,24700,32571.28
1625,24700,32591.34
1626,24696,32611.40
1627,24692,32631.45
1628,24692,32651.51
1629,24688,32671.57
1630,24684,32691.62
1631,24684,32711.68
1632,24688,32731.73
1633,24684,32751.79
1634,24680,32771.85
1635,24676,32791.90
1636,24672,32811.96
1637,24668,32832.02
1638,24660,32852.07
1639,24644,32872.13
1640,24624,32892.18
1641,24600,32912.24
1642,24584,32932.30
1643,24564,32952.35
1644,24548,32972.41
1645,24536,32992.46
1646,24512,33012.52
1647,24492,33032.58
1648,24476,33052.63
1649,24468,33072.69
1650,24464,33092.75
1651,24460,33112.80
1652,24452,33132.86
1653,24448,33152.91
1654,24444,33172.97
1655,24436,33193.03
1656,24428,33213.08
1657,24432,33233.14
1658,24432,33253.20
1659,24428,33273.25
1660,24432,33293.31
1661,24436,33313.36
1662,24440,33333.42
1663,24444,33353.48
1664,24452,33373.53
1665,24456,33393.59
1666,24460,33413.65
1667,24468,33433.70
1668,24476,33453.76
1669,24484,33473.81
1670,24484,33493.87
1671,24484,33513.93
1672,24480,33533.98
1673,24472,33554.04
1674,24468,33574.09
1675,24464,33594.15
1676,24460,33614.21
1677,24460,33634.26
1678,24460,33654.32
1679,24468,33674.38
1680,24472,33694.43
1681,24480,33714.49
1682,24488,33734.54
1683,24492,33754.60
1684,24500,33774.66
1685,24504,33794.71
1686,24504,33814.77
1687,24512,33834.83
1688,24512,33854.88
1689,24512,33874.94
1690,24512,33894.99
1691,24520,33915.05
1692,24532,33935.11
1693,24544,33955.16
1694,24560,33975.22
1695,24576,33995.28
1696,24588,34015.33
1697,24600,34035.39
1698,24612,34055.44
1699,24616,34075.50
1700,24628,34095.56
1701,24640,34115.61
1702,24644,34135.67
1703,24636,34155.72
1704,24616,34175.78
1705,24588,34195.84
1706,24556,34215.89
1707,24532,34235.95
1708,24512,34256.01
1709,24504,34276.06
1710,24500,34296.12
1711,24496,34316.17
1712,24492,34336.23
1713,24480,34356.29
1714,24480,34376.34
1715,24476,34396.40
1716,24476,34416.46
1717,24476,34436.51
1718,24472,34456.57
1719,24476,34476.62
1720,24472,34496.68
1721,24468,34516.74
1722,24464,34536.79
1723,24468,34556.85
1724,24472,34576.91
1725,24480,34596.96
1726,24484,34617.02
1727,24488,34637.07
1728,24492,34657.13
1729,24496,34677.19
1730,24500,34697.24
1731,24504,34717.30
1732,24508,34737.35
1733,24520,34757.41
1734,24528,34777.47
1735,24536,34797.52
1736,24548,34817.58
1737,24556,34837.64
1738,24560,34857.69
1739,24548,34877.75
1740,24536,34897.80
1741,24516,34917.86
1742,24500,34937.92
1743,24492,34957.97
1744,24492,34978.03
1745,24496,34998.09
1746,24504,35018.14
1747,24508,35038.20
1748,24512,35058.25
1749,24516,35078.31
1750,24524,35098.37
1751,24528,35118.42
1752,24532,35138.48
1753,24524,35158.54
1754,24520,35178.59
1755,24520,35198.65
1756,24520,35218.70
1757,24516,35238.76
1758,24524,35258.82
1759,24524,35278.87
1760,24532,35298.93
1761,24536,35318.98
1762,24540,35339.04
1763,24544,35359.10
1764,24548,35379.15
1765,24556,35399.21
1766,24564,35419.27
1767,24564,35439.32
1768,24568,35459.38
1769,24576,35479.43
1770,24580,35499.49
1771,24588,35519.55
1772,24592,35539.60
1773,24596,35559.66
1774,24588,35579.72
1775,24564,35599.77
1776,24532,35619.83
1777,24496,35639.88
1778,24464,35659.94
1779,24428,35680.00
1780,24400,35700.05
1781,24376,35720.11
1782,24364,35740.17
1783,24352,35760.22
1784,24344,35780.28
1785,24344,35800.33
1786,24340,35820.39
1787,24336,35840.45
1788,24332,35860.50
1789,24324,35880.56
1790,24320,35900.62
1791,24316,35920.67
1792,24312,35940.73
1793,24316,35960.78
1794,24320,35980.84
1795,24324,36000.90
1796,24328,36020.95
1797,24332,36041.01
1798,24340,36061.06
1799,24348,36081.12
1800,24356,36101.18
1801,24364,36121.23
1802,24364,36141.29
1803,24372,36161.35
1804,24376,36181.40
1805,24384,36201.46
1806,24388,36221.51
1807,24396,36241.57
1808,24404,36261.63
1809,24416,36281.68
1810,24416,36301.74
1811,24404,36321.80
1812,24384,36341.85
1813,24368,36361.91
1814,24348,36381.96
1815,24336,36402.02
1816,24332,36422.08
1817,24332,36442.13
1818,24336,36462.19
1819,24340,36482.25
1820,24356,36502.30
1821,24364,36522.36
1822,24376,36542.41
1823,24388,36562.47
1824,24392,36582.53
1825,24392,36602.58
1826,24400,36622.64
1827,24404,36642.69
1828,24404,36662.75
1829,24408,36682.81
1830,24412,36702.86
1831,24420,36722.92
1832,24424,36742.98
1833,24432,36763.03
1834,24436,36783.09
1835,24444,36803.14
1836,24452,36823.20
1837,24464,36843.26
1838,24476,36863.31
1839,24484,36883.37
1840,24496,36903.43
1841,24504,36923.48
1842,24512,36943.54
1843,24512,36963.59
1844,24504,36983.65
1845,24484,37003.71
1846,24456,37023.76
1847,24424,37043.82
1848,24396,37063.88
1849,24380,37083.93
1850,24372,37103.99
1851,24364,37124.04
1852,24360,37144.10
1853,24364,37164.16
1854,24364,37184.21
1855,24368,37204.27
1856,24376,37224.32
1857,24384,37244.38
1858,24388,37264.44
1859,24388,37284.49
1860,24392,37304.55
1861,24392,37324.61
1862,24392,37344.66
1863,24396,37364.72
1864,24400,37384.77
1865,24404,37404.83
1866,24416,37424.89
1867,24420,37444.94
1868,24428,37465.00
1869,24436,37485.06
1870,24440,37505.11
1871,24448,37525.17
1872,24452,37545.22
1873,24464,37565.28
1874,24472,37585.34
1875,24484,37605.39
1876,24488,37625.45
1877,24492,37645.51
1878,24500,37665.56
1879,24492,37685.62
1880,24472,37705.67
1881,24436,37725.73
1882,24392,37745.79
1883,24348,37765.84
1884,24308,37785.90
1885,24280,37805.95
1886,24264,37826.01
1887,24256,37846.07
1888,24252,37866.12
1889,24256,37886.18
1890,24260,37906.24
1891,24260,37926.29
1892,24268,37946.35
1893,24272,37966.40
1894,24276,37986.46
1895,24276,38006.52
1896,24276,38026.57
1897,24276,38046.63
1898,24276,38066.69
1899,24276,38086.74
1900,24280,38106.80
1901,24288,38126.85
1902,24296,38146.91
1903,24304,38166.97
1904,24320,38187.02
1905,24332,38207.08
1906,24340,38227.14
1907,24348,38247.19
1908,24360,38267.25
1909,24368,38287.30
1910,24384,38307.36
1911,24392,38327.42
1912,24408,38347.47
1913,24420,38367.53
1914,24428,38387.59
1915,24436,38407.64
1916,24428,38427.70
1917,24400,38447.75
1918,24364,38467.81
1919,24320,38487.87
1920,24284,38507.92
1921,24256,38527.98
1922,24244,38548.03
1923,24236,38568.09
1924,24236,38588.15
1925,24236,38608.20
1926,24248,38628.26
1927,24256,38648.32
1928,24276,38668.37
1929,24284,38688.43
1930,24296,38708.48
1931,24304,38728.54
1932,24312,38748.60
1933,24316,38768.65
1934,24320,38788.71
1935,24328,38808.77
1936,24336,38828.82
1937,24344,38848.88
1938,24356,38868.93
1939,24364,38888.99
1940,24376,38909.05
1941,24384,38929.10
1942,24392,38949.16
1943,24404,38969.22
1944,24412,38989.27
1945,24428,39009.33
1946,24444,39029.38
1947,24452,39049.44
1948,24468,39069.50
1949,24480,39089.55
1950,24488,39109.61
1951,24492,39129.66
1952,24496,39149.72
1953,24496,39169.78
1954,24480,39189.83
1955,24444,39209.89
1956,24400,39229.95
1957,24356,39250.00
1958,24320,39270.06
1959,24296,39290.11
1960,24280,39310.17
1961,24276,39330.23
1962,24276,39350.28
1963,24280,39370.34
1964,24288,39390.40
1965,24296,39410.45
1966,24304,39430.51
1967,24312,39450.56
1968,24312,39470.62
1969,24312,39490.68
1970,24312,39510.73
1971,24304,39530.79
1972,24308,39550.85
1973,24308,39570.90
1974,24316,39590.96
1975,24324,39611.01
1976,24340,39631.07
1977,24356,39651.13
1978,24376,39671.18
1979,24392,39691.24
1980,24404,39711.29
1981,24416,39731.35
1982,24428,39751.41
1983,24444,39771.46
1984,24460,39791.52
1985,24472,39811.58
1986,24484,39831.63
1987,24492,39851.69
1988,24492,39871.74
1989,24480,39891.80
1990,24444,39911.86
1991,24400,39931.91
1992,24348,39951.97
1993,24300,39972.03
1994,24268,39992.08
1995,24252,40012.14
1996,24248,40032.19
1997,24248,40052.25
1998,24256,40072.31
1999,24268,40092.36
2000,24280,40112.42
2001,24292,40132.48
2002,24300,40152.53
2003,24308,40172.59
2004,24312,40192.64
2005,24312,40212.70
2006,24308,40232.76
2007,24304,40252.81
2008,24300,40272.87
2009,24300,40292.92
2010,24304,40312.98
2011,24308,40333.04
2012,24316,40353.09
2013,24324,40373.15
2014,24336,40393.21
2015,24348,40413.26
2016,24356,40433.32
2017,24364,40453.37
2018,24372,40473.43
2019,24384,40493.49
2020,24392,40513.54
2021,24396,40533.60
2022,24380,40553.66
2023,24340,40573.71
2024,24284,40593.77
2025,24224,40613.82
2026,24172,40633.88
2027,24136,40653.94
2028,24116,40673.99
2029,24104,40694.05
2030,24100,40714.11
2031,24100,40734.16
2032,24104,40754.22
2033,24116,40774.27
2034,24128,40794.33
2035,24132,40814.39
2036,24132,40834.44
2037,24132,40854.50
2038,24132,40874.56
2039,24132,40894.61
2040,24132,40914.67
2041,24136,40934.72
2042,24148,40954.78
2043,24160,40974.84
2044,24172,40994.89
2045,24184,41014.95
2046,24200,41035.00
2047,24216,41055.06
2048,24236,41075.12
2049,24256,41095.17
2050,24272,41115.23
2051,24288,41135.29
2052,24300,41155.34
2053,24316,41175.40
2054,24324,41195.45
2055,24304,41215.51
2056,24260,41235.57
2057,24200,41255.62
2058,24132,41275.68
2059,24072,41295.74
2060,24036,41315.79
2061,24012,41335.85
2062,24000,41355.90
2063,23996,41375.96
2064,23988,41396.02
2065,23988,41416.07
2066,23996,41436.13
2067,24008,41456.19
2068,24024,41476.24
2069,24028,41496.30
2070,24036,41516.35
2071,24036,41536.41
2072,24040,41556.47
2073,24040,41576.52
2074,24044,41596.58
2075,24048,41616.63
2076,24064,41636.69
2077,24076,41656.75
2078,24092,41676.80
2079,24112,41696.86
2080,24128,41716.92
2081,24140,41736.97
2082,24156,41757.03
2083,24172,41777.08
2084,24192,41797.14
2085,24212,41817.20
2086,24232,41837.25
2087,24244,41857.31
2088,24228,41877.37
2089,24188,41897.42
2090,24132,41917.48
2091,24076,41937.53
2092,24024,41957.59
2093,23996,41977.65
2094,23976,41997.70
2095,23968,42017.76
2096,23964,42037.82
2097,23968,42057.87
2098,23976,42077.93
2099,23988,42097.98
2100,23996,42118.04
2101,24008,42138.10
2102,24012,42158.15
2103,24016,42178.21
2104,24016,42198.26
2105,24024,42218.32
2106,24028,42238.38
2107,24036,42258.43
2108,24036,42278.49
2109,24048,42298.55
2110,24056,42318.60
2111,24072,42338.66
2112,24084,42358.71
2113,24096,42378.77
2114,24112,42398.83
2115,24128,42418.88
2116,24144,42438.94
2117,24156,42459.00
2118,24168,42479.05
2119,24180,42499.11
2120,24188,42519.16
2121,24172,42539.22
2122,24128,42559.28
2123,24072,42579.33
2124,24020,42599.39
2125,23980,42619.45
2126,23952,42639.50
2127,23932,42659.56
2128,23920,42679.61
2129,23920,42699.67
2130,23916,42719.73
2131,23920,42739.78
2132,23920,42759.84
2133,23920,42779.89
2134,23924,42799.95
2135,23924,42820.01
2136,23928,42840.06
2137,23932,42860.12
2138,23936,42880.18
2139,23940,42900.23
2140,23944,42920.29
2141,23948,42940.34
2142,23960,42960.40
2143,23972,42980.46
2144,23984,43000.51
2145,24000,43020.57
2146,24016,43040.63
2147,24032,43060.68
2148,24048,43080.74
2149,24060,43100.79
2150,24072,43120.85
2151,24088,43140.91
2152,24104,43160.96
2153,24104,43181.02
2154,24084,43201.08
2155,24048,43221.13
2156,24004,43241.19
2157,23964,43261.24
2158,23936,43281.30
2159,23920,43301.36
2160,23920,43321.41
2161,23920,43341.47
2162,23924,43361.53
2163,23932,43381.58
2164,23944,43401.64
2165,23956,43421.69
2166,23964,43441.75
2167,23972,43461.81
2168,23976,43481.86
2169,23976,43501.92
2170,23984,43521.97
2171,23988,43542.03
2172,23992,43562.09
2173,23996,43582.14
2174,24000,43602.20
2175,24004,43622.26
2176,24016,43642.31
2177,24028,43662.37
2178,24044,43682.42
2179,24064,43702.48
2180,24080,43722.54
2181,24092,43742.59
2182,24108,43762.65
2183,24124,43782.71
2184,24140,43802.76
2185,24152,43822.82
2186,24156,43842.87
2187,24136,43862.93
2188,24108,43882.99
2189,24068,43903.04
2190,24028,43923.10
2191,23992,43943.16
2192,23972,43963.21
2193,23960,43983.27
2194,23952,44003.32
2195,23948,44023.38
2196,23952,44043.44
2197,23960,44063.49
2198,23972,44083.55
2199,23976,44103.60
2200,23984,44123.66
2201,23976,44143.72
2202,23976,44163.77
2203,23972,44183.83
2204,23972,44203.89
2205,23972,44223.94
2206,23980,44244.00
2207,23980,44264.05
2208,23992,44284.11
2209,23996,44304.17
2210,24008,44324.22
2211,24012,44344.28
2212,24024,44364.34
2213,24032,44384.39
2214,24040,44404.45
2215,24044,44424.50
2216,24048,44444.56
2217,24056,44464.62
2218,24060,44484.67
2219,24068,44504.73
2220,24060,44524.79
2221,24028,44544.84
2222,23988,44564.90
2223,23948,44584.95
2224,23912,44605.01
2225,23888,44625.07
2226,23876,44645.12
2227,23872,44665.18
2228,23872,44685.23
2229,23876,44705.29
2230,23872,44725.35
2231,23876,44745.40
2232,23884,44765.46
2233,23892,44785.52
2234,23900,44805.57
2235,23900,44825.63
2236,23908,44845.68
2237,23912,44865.74
2238,23916,44885.80
2239,23924,44905.85
2240,23928,44925.91
2241,23936,44945.97
2242,23948,44966.02
2243,23956,44986.08
2244,23968,45006.13
2245,23984,45026.19
2246,24000,45046.25
2247,24016,45066.30
2248,24028,45086.36
2249,24048,45106.42
2250,24056,45126.47
2251,24072,45146.53
2252,24088,45166.58
2253,24100,45186.64
2254,24104,45206.70
2255,24092,45226.75
2256,24064,45246.81
2257,24028,45266.86
2258,23988,45286.92
2259,23964,45306.98
2260,23952,45327.03
2261,23948,45347.09
2262,23944,45367.15
2263,23944,45387.20
2264,23948,45407.26
2265,23956,45427.31
2266,23968,45447.37
2267,23976,45467.43
2268,23988,45487.48
2269,23992,45507.54
2270,23996,45527.60
2271,23996,45547.65
2272,24000,45567.71
2273,24008,45587.76
2274,24012,45607.82
2275,24020,45627.88
2276,24028,45647.93
2277,24040,45667.99
2278,24052,45688.05
2279,24064,45708.10
2280,24072,45728.16
2281,24088,45748.21
2282,24100,45768.27
2283,24116,45788.33
2284,24132,45808.38
2285,24148,45828.44
2286,24164,45848.49
2287,24180,45868.55
2288,24196,45888.61
2289,24208,45908.66
2290,24220,45928.72
2291,24220,45948.78
2292,24208,45968.83
2293,24188,45988.89
2294,24156,46008.94
2295,24124,46029.00
2296,24096,46049.06
2297,24084,46069.11
2298,24076,46089.17
2299,24076,46109.23
2300,24080,46129.28
2301,24088,46149.34
2302,24092,46169.39
2303,24104,46189.45
2304,24112,46209.51
2305,24124,46229.56
2306,24136,46249.62
2307,24140,46269.68
2308,24144,46289.73
2309,24144,46309.79
2310,24152,46329.84
2311,24156,46349.90
2312,24164,46369.96
2313,24172,46390.01
2314,24188,46410.07
2315,24196,46430.13
2316,24204,46450.18
2317,24212,46470.24
2318,24224,46490.29
2319,24232,46510.35
2320,24244,46530.41
2321,24256,46550.46
2322,24268,46570.52
2323,24280,46590.57
2324,24296,46610.63
2325,24308,46630.69
2326,24320,46650.74
2327,24332,46670.80
2328,24336,46690.86
2329,24324,46710.91
2330,24308,46730.97
2331,24284,46751.02
2332,24264,46771.08
2333,24252,46791.14
2334,24244,46811.19
2335,24240,46831.25
2336,24244,46851.31
2337,24244,46871.36
2338,24252,46891.42
2339,24260,46911.47
2340,24268,46931.53
2341,24276,46951.59
2342,24284,46971.64
2343,24288,46991.70
2344,24292,47011.76
2345,24296,47031.81
2346,24296,47051.87
2347,24304,47071.92
2348,24308,47091.98
2349,24316,47112.04
2350,24324,47132.09
2351,24332,47152.15
2352,24344,47172.20
2353,24356,47192.26
2354,24368,47212.32
2355,24380,47232.37
2356,24384,47252.43
2357,24396,47272.49
2358,24404,47292.54
2359,24416,47312.60
2360,24428,47332.65
2361,24440,47352.71
2362,24448,47372.77
2363,24452,47392.82
2364,24456,47412.88
2365,24452,47432.94
2366,24432,47452.99
2367,24412,47473.05
2368,24384,47493.10
2369,24364,47513.16
2370,24348,47533.22
2371,24340,47553.27
2372,24336,47573.33
2373,24340,47593.39
2374,24348,47613.44
2375,24348,47633.50
2376,24356,47653.55
2377,24360,47673.61
2378,24368,47693.67
2379,24372,47713.72
2380,24376,47733.78
2381,24380,47753.83
2382,24384,47773.89
2383,24388,47793.95
2384,24392,47814.00
2385,24396,47834.06
2386,24400,47854.12
2387,24408,47874.17
2388,24416,47894.23
2389,24424,47914.28
2390,24432,47934.34
2391,24440,47954.40
2392,24448,47974.45
2393,24452,47994.51
2394,24460,48014.57
2395,24472,48034.62
2396,24480,48054.68
2397,24488,48074.73
2398,24496,48094.79
2399,24508,48114.85
2400,24520,48134.90
2401,24532,48154.96
2402,24544,48175.02
2403,24548,48195.07
2404,24536,48215.13
2405,24516,48235.18
2406,24496,48255.24
2407,24472,48275.30
2408,24452,48295.35
2409,24440,48315.41
2410,24436,48335.46
2411,24432,48355.52
2412,24432,48375.58
2413,24432,48395.63
2414,24432,48415.69
2415,24436,48435.75
2416,24440,48455.80
2417,24448,48475.86
2418,24452,48495.91
2419,24452,48515.97
2420,24452,48536.03
2421,24452,48556.08
2422,24456,48576.14
2423,24464,48596.20
2424,24464,48616.25
2425,24468,48636.31
2426,24476,48656.36
2427,24480,48676.42
2428,24488,48696.48
2429,24500,48716.53
2430,24504,48736.59
2431,24512,48756.65
2432,24520,48776.70
2433,24528,48796.76
2434,24536,48816.81
2435,24548,48836.87
2436,24560,48856.93
2437,24568,48876.98
2438,24576,48897.04
2439,24584,48917.10
2440,24596,48937.15
2441,24604,48957.21
2442,24600,48977.26
2443,24588,48997.32
2444,24568,49017.38
2445,24544,49037.43
2446,24520,49057.49
2447,24500,49077.54
2448,24488,49097.60
2449,24480,49117.66
2450,24476,49137.71
2451,24480,49157.77
2452,24484,49177.83
2453,24488,49197.88
2454,24492,49217.94
2455,24500,49237.99
2456,24508,49258.05
2457,24512,49278.11
2458,24516,49298.16
2459,24520,49318.22
2460,24520,49338.28
2461,24528,49358.33
2462,24532,49378.39
2463,24536,49398.44
2464,24544,49418.50
2465,24552,49438.56
2466,24564,49458.61
2467,24572,49478.67
2468,24580,49498.73
2469,24592,49518.78
2470,24600,49538.84
2471,24612,49558.89
2472,24620,49578.95
2473,24628,49599.01
2474,24640,49619.06
2475,24644,49639.12
2476,24652,49659.17
2477,24660,49679.23
2478,24672,49699.29
2479,24664,49719.34
2480,24652,49739.40
2481,24632,49759.46
2482,24600,49779.51
2483,24580,49799.57
2484,24560,49819.62
2485,24548,49839.68
2486,24544,49859.74
2487,24548,49879.79
2488,24552,49899.85
2489,24556,49919.91
2490,24564,49939.96
2491,24572,49960.02
2492,24576,49980.07
2493,24580,50000.13
2494,24584,50020.19
2495,24584,50040.24
2496,24588,50060.30
2497,24584,50080.36
2498,24580,50100.41
2499,24584,50120.47
2500,24584,50140.52
2501,24592,50160.58
2502,24596,50180.64
2503,24604,50200.69
2504,24612,50220.75
2505,24620,50240.80
2506,24632,50260.86
2507,24640,50280.92
2508,24648,50300.97
2509,24652,50321.03
2510,24656,50341.09
2511,24668,50361.14
2512,24676,50381.20
2513,24676,50401.25
2514,24664,50421.31
2515,24640,50441.37
2516,24608,50461.42
2517,24576,50481.48
2518,24544,50501.54
2519,24520,50521.59
2520,24504,50541.65
2521,24496,50561.70
2522,24492,50581.76
2523,24496,50601.82
2524,24496,50621.87
2525,24500,50641.93
2526,24500,50661.99
2527,24504,50682.04
2528,24500,50702.10
2529,24500,50722.15
2530,24500,50742.21
2531,24500,50762.27
2532,24500,50782.32
2533,24496,50802.38
2534,24496,50822.43
2535,24500,50842.49
2536,24508,50862.55
2537,24512,50882.60
2538,24520,50902.66
2539,24528,50922.72
2540,24536,50942.77
2541,24544,50962.83
2542,24556,50982.88
2543,24564,51002.94
2544,24572,51023.00
2545,24584,51043.05
2546,24588,51063.11
2547,24600,51083.17
2548,24600,51103.22
2549,24592,51123.28
2550,24560,51143.33
2551,24520,51163.39
2552,24464,51183.45
2553,24420,51203.50
2554,24384,51223.56
2555,24364,51243.62
2556,24348,51263.67
2557,24344,51283.73
2558,24344,51303.78
2559,24340,51323.84
2560,24340,51343.90
2561,24344,51363.95
2562,24340,51384.01
2563,24340,51404.07
2564,24336,51424.12
2565,24332,51444.18
2566,24332,51464.23
2567,24336,51484.29
2568,24332,51504.35
2569,24332,51524.40
2570,24332,51544.46
2571,24332,51564.51
2572,24336,51584.57
2573,24344,51604.63
2574,24348,51624.68
2575,24360,51644.74
2576,24372,51664.80
2577,24380,51684.85
2578,24388,51704.91
2579,24400,51724.96
2580,24408,51745.02
2581,24416,51765.08
2582,24428,51785.13
2583,24436,51805.19
2584,24440,51825.25
2585,24428,51845.30
2586,24400,51865.36
2587,24356,51885.41
2588,24308,51905.47
2589,24264,51925.53
2590,24232,51945.58
2591,24216,51965.64
2592,24208,51985.70
2593,24204,52005.75
2594,24204,52025.81
2595,24208,52045.86
2596,24212,52065.92
2597,24220,52085.98
2598,24224,52106.03
2599,24232,52126.09
2600,24236,52146.14
2601,24236,52166.20
2602,24232,52186.26
2603,24232,52206.31
2604,24232,52226.37
2605,24236,52246.43
2606,24240,52266.48
2607,24244,52286.54
2608,24248,52306.59
2609,24256,52326.65
2610,24268,52346.71
2611,24280,52366.76
2612,24296,52386.82
2613,24308,52406.88
2614,24320,52426.93
2615,24332,52446.99
2616,24348,52467.04
2617,24360,52487.10
2618,24368,52507.16
2619,24356,52527.21
2620,24332,52547.27
2621,24288,52567.33
2622,24240,52587.38
2623,24196,52607.44
2624,24160,52627.49
2625,24140,52647.55
2626,24128,52667.61
2627,24124,52687.66
2628,24128,52707.72
2629,24136,52727.77
2630,24144,52747.83
2631,24156,52767.89
2632,24168,52787.94
2633,24172,52808.00
2634,24172,52828.06
2635,24172,52848.11
2636,24168,52868.17
2637,24168,52888.22
2638,24168,52908.28
2639,24172,52928.34
2640,24180,52948.39
2641,24192,52968.45
2642,24200,52988.51
2643,24216,53008.56
2644,24228,53028.62
2645,24240,53048.67
2646,24244,53068.73
2647,24252,53088.79
2648,24260,53108.84
2649,24268,53128.90
2650,24280,53148.96
2651,24288,53169.01
2652,24268,53189.07
2653,24224,53209.12
2654,24172,53229.18
2655,24112,53249.24
2656,24068,53269.29
2657,24044,53289.35
2658,24028,53309.40
2659,24024,53329.46
2660,24028,53349.52
2661,24036,53369.57
2662,24040,53389.63
2663,24052,53409.69
2664,24068,53429.74
2665,24076,53449.80
2666,24084,53469.85
2667,24084,53489.91
2668,24084,53509.97
2669,24080,53530.02
2670,24076,53550.08
2671,24076,53570.14
2672,24080,53590.19
2673,24088,53610.25
2674,24096,53630.30
2675,24104,53650.36
2676,24120,53670.42
2677,24136,53690.47
2678,24148,53710.53
2679,24160,53730.59
2680,24176,53750.64
2681,24188,53770.70
2682,24200,53790.75
2683,24216,53810.81
2684,24224,53830.87
2685,24236,53850.92
2686,24244,53870.98
2687,24232,53891.04
2688,24200,53911.09
2689,24140,53931.15
2690,24076,53951.20
2691,24020,53971.26
2692,23984,53991.32
2693,23960,54011.37
2694,23952,54031.43
2695,23948,54051.48
2696,23948,54071.54
2697,23948,54091.60
2698,23956,54111.65
2699,23964,54131.71
2700,23976,54151.77
2701,23980,54171.82
2702,23984,54191.88
2703,23980,54211.93
2704,23980,54231.99
2705,23980,54252.05
2706,23980,54272.10
2707,23984,54292.16
2708,23988,54312.22
2709,23992,54332.27
2710,24004,54352.33
2711,24016,54372.38
2712,24028,54392.44
2713,24040,54412.50
2714,24056,54432.55
2715,24068,54452.61
2716,24084,54472.67
2717,24096,54492.72
2718,24116,54512.78
2719,24124,54532.83
2720,24140,54552.89
2721,24156,54572.95
2722,24172,54593.00
2723,24176,54613.06
2724,24164,54633.11
2725,24128,54653.17
2726,24068,54673.23
2727,24008,54693.28
2728,23956,54713.34
2729,23920,54733.40
2730,23904,54753.45
2731,23892,54773.51
2732,23892,54793.56
2733,23892,54813.62
2734,23896,54833.68
2735,23904,54853.73
2736,23912,54873.79
2737,23920,54893.85
2738,23928,54913.90
2739,23928,54933.96
2740,23932,54954.01
2741,23932,54974.07
2742,23928,54994.13
2743,23928,55014.18
2744,23932,55034.24
2745,23940,55054.30
2746,23948,55074.35
2747,23960,55094.41
2748,23972,55114.46
2749,23984,55134.52
2750,24004,55154.58
2751,24020,55174.63
2752,24036,55194.69
2753,24048,55214.74
2754,24056,55234.80
2755,24068,55254.86
2756,24080,55274.91
2757,24092,55294.97
2758,24108,55315.03
2759,24112,55335.08
2760,24096,55355.14
2761,24056,55375.19
2762,24004,55395.25
2763,23944,55415.31
2764,23892,55435.36
2765,23860,55455.42
2766,23836,55475.48
2767,23836,55495.53
2768,23836,55515.59
2769,23840,55535.64
2770,23848,55555.70
2771,23856,55575.76
2772,23868,55595.81
2773,23868,55615.87
2774,23868,55635.93
2775,23864,55655.98
2776,23864,55676.04
2777,23860,55696.09
2778,23860,55716.15
2779,23860,55736.21
2780,23868,55756.26
2781,23876,55776.32
2782,23884,55796.37
2783,23900,55816.43
2784,23908,55836.49
2785,23924,55856.54
2786,23936,55876.60
2787,23952,55896.66
2788,23964,55916.71
2789,23980,55936.77
2790,23992,55956.82
2791,24004,55976.88
2792,24020,55996.94
2793,24036,56016.99
2794,24028,56037.05
2795,23988,56057.11
2796,23928,56077.16
2797,23864,56097.22
2798,23808,56117.27
2799,23772,56137.33
2800,23752,56157.39
2801,23744,56177.44
2802,23740,56197.50
2803,23744,56217.56
2804,23752,56237.61
2805,23760,56257.67
2806,23772,56277.72
2807,23784,56297.78
2808,23792,56317.84
2809,23792,56337.89
2810,23792,56357.95
2811,23792,56378.00
2812,23792,56398.06
2813,23796,56418.12
2814,23800,56438.17
2815,23808,56458.23
2816,23816,56478.29
2817,23832,56498.34
2818,23844,56518.40
2819,23860,56538.45
2820,23872,56558.51
2821,23888,56578.57
2822,23900,56598.62
2823,23912,56618.68
2824,23932,56638.74
2825,23944,56658.79
2826,23956,56678.85
2827,23968,56698.90
2828,23980,56718.96
2829,23992,56739.02
2830,23996,56759.07
2831,23972,56779.13
2832,23928,56799.19
2833,23864,56819.24
2834,23800,56839.30
2835,23752,56859.35
2836,23716,56879.41
2837,23700,56899.47
2838,23692,56919.52
2839,23696,56939.58
2840,23704,56959.64
2841,23712,56979.69
2842,23720,56999.75
2843,23732,57019.80
2844,23744,57039.86
2845,23748,57059.92
2846,23748,57079.97
2847,23748,57100.03
2848,23748,57120.08
2849,23752,57140.14
2850,23756,57160.20
2851,23760,57180.25
2852,23768,57200.31
2853,23776,57220.37
2854,23792,57240.42
2855,23800,57260.48
2856,23816,57280.53
2857,23828,57300.59
2858,23848,57320.65
2859,23864,57340.70
2860,23880,57360.76
2861,23896,57380.82
2862,23908,57400.87
2863,23920,57420.93
2864,23936,57440.98
2865,23948,57461.04
2866,23956,57481.10
2867,23940,57501.15
2868,23900,57521.21
2869,23848,57541.27
2870,23792,57561.32
2871,23748,57581.38
2872,23716,57601.43
2873,23704,57621.49
2874,23700,57641.55
2875,23700,57661.60
2876,23708,57681.66
2877,23724,57701.71
2878,23736,57721.77
2879,23756,57741.83
2880,23764,57761.88
2881,23764,57781.94
2882,23764,57802.00
2883,23764,57822.05
2884,23764,57842.11
2885,23764,57862.16
2886,23768,57882.22
2887,23772,57902.28
2888,23784,57922.33
2889,23796,57942.39
2890,23812,57962.45
2891,23832,57982.50
2892,23844,58002.56
2893,23860,58022.61
2894,23876,58042.67
2895,23896,58062.73
2896,23912,58082.78
2897,23932,58102.84
2898,23952,58122.90
2899,23964,58142.95
2900,23952,58163.01
2901,23916,58183.06
2902,23868,58203.12
2903,23820,58223.18
2904,23776,58243.23
2905,23748,58263.29
2906,23732,58283.34
2907,23732,58303.40
2908,23736,58323.46
2909,23748,58343.51
2910,23756,58363.57
2911,23768,58383.63
2912,23780,58403.68
2913,23796,58423.74
2914,23800,58443.79
2915,23804,58463.85
2916,23804,58483.91
2917,23804,58503.96
2918,23808,58524.02
2919,23816,58544.08
2920,23820,58564.13
2921,23832,58584.19
2922,23848,58604.24
2923,23864,58624.30
2924,23884,58644.36
2925,23900,58664.41
2926,23916,58684.47
2927,23932,58704.53
2928,23948,58724.58
2929,23964,58744.64
2930,23984,58764.69
2931,23996,58784.75
2932,24016,58804.81
2933,24032,58824.86
2934,24044,58844.92
2935,24040,58864.97
2936,24012,58885.03
2937,23960,58905.09
2938,23908,58925.14
2939,23860,58945.20
2940,23836,58965.26
2941,23824,58985.31
2942,23820,59005.37
2943,23820,59025.42
2944,23828,59045.48
2945,23832,59065.54
2946,23844,59085.59
2947,23852,59105.65
2948,23864,59125.71
2949,23868,59145.76
2950,23876,59165.82
2951,23880,59185.87
2952,23884,59205.93
2953,23884,59225.99
2954,23892,59246.04
2955,23896,59266.10
2956,23908,59286.16
2957,23916,59306.21
2958,23932,59326.27
2959,23944,59346.32
2960,23960,59366.38
2961,23976,59386.44
2962,23996,59406.49
2963,24008,59426.55
2964,24024,59446.61
2965,24040,59466.66
2966,24056,59486.72
2967,24072,59506.77
2968,24088,59526.83
2969,24104,59546.89
2970,24120,59566.94
2971,24136,59587.00
2972,24132,59607.05
2973,24112,59627.11
2974,24068,59647.17
2975,24016,59667.22
2976,23972,59687.28
2977,23940,59707.34
2978,23924,59727.39
2979,23920,59747.45
2980,23920,59767.50
2981,23924,59787.56
2982,23936,59807.62
2983,23944,59827.67
2984,23956,59847.73
2985,23968,59867.79
2986,23968,59887.84
2987,23972,59907.90
2988,23980,59927.95
2989,23980,59948.01
2990,23984,59968.07
2991,23984,59988.12
2992,23992,60008.18
2993,23996,60028.24
2994,24000,60048.29
2995,24008,60068.35
2996,24020,60088.40
2997,24032,60108.46
2998,24048,60128.52
2999,24056,60148.57
