Sample_Index,IR_Value,Timestamp_ms
0,18416,0.00
1,18924,10.00
2,19104,20.00
3,19984,30.00
4,20668,40.00
5,20900,50.00
6,21188,60.00
7,21368,70.00
8,21708,80.00
9,22040,90.00
10,22276,100.00
11,22460,110.00
12,22640,120.00
13,22820,130.00
14,23008,140.00
15,23144,150.00
16,23292,160.00
17,23436,170.00
18,23480,180.00
19,23496,190.00
20,23532,200.00
21,23532,210.00
22,23520,220.00
23,23528,230.00
24,23540,240.00
25,23468,250.00
26,22996,260.00
27,22552,270.00
28,22316,280.00
29,22188,290.00
30,22224,300.00
31,22080,310.00
32,21904,320.00
33,21800,330.00
34,21744,340.00
35,21756,350.00
36,21872,360.00
37,22188,370.00
38,22592,380.00
39,23088,390.00
40,23520,400.00
41,23768,410.00
42,23976,420.00
43,24144,430.00
44,24260,440.00
45,24388,450.00
46,24460,460.00
47,24472,470.00
48,24464,480.00
49,24364,490.00
50,24076,500.00
51,23748,510.00
52,23480,520.00
53,23332,530.00
54,23220,540.00
55,23112,550.00
56,22972,560.00
57,22884,570.00
58,22860,580.00
59,22820,590.00
60,22828,600.00
61,22908,610.00
62,22988,620.00
63,23044,630.00
64,23120,640.00
65,23224,650.00
66,23332,660.00
67,23364,670.00
68,23436,680.00
69,23572,690.00
70,23688,700.00
71,23764,710.00
72,23800,720.00
73,23720,730.00
74,23472,740.00
75,23128,750.00
76,22876,760.00
77,22824,770.00
78,22852,780.00
79,22896,790.00
80,22936,800.00
81,22940,810.00
82,22908,820.00
83,22908,830.00
84,22920,840.00
85,22952,850.00
86,22992,860.00
87,23056,870.00
88,23108,880.00
89,23160,890.00
90,23192,900.00
91,23212,910.00
92,23256,920.00
93,23312,930.00
94,23368,940.00
95,23408,950.00
96,23272,960.00
97,22960,970.00
98,22676,980.00
99,22568,990.00
100,22564,1000.00
101,22644,1010.00
102,22732,1020.00
103,22776,1030.00
104,22792,1040.00
105,22792,1050.00
106,22788,1060.00
107,22804,1070.00
108,22888,1080.00
109,22980,1090.00
110,23060,1100.00
111,23136,1110.00
112,23212,1120.00
113,23276,1130.00
114,23328,1140.00
115,23396,1150.00
116,23460,1160.00
117,23392,1170.00
118,23136,1180.00
119,22836,1190.00
120,22624,1200.00
121,22484,1210.00
122,22384,1220.00
123,22280,1230.00
124,22084,1240.00
125,21880,1250.00
126,21756,1260.00
127,21776,1270.00
128,21836,1280.00
129,21888,1290.00
130,21920,1300.00
131,21984,1310.00
132,22064,1320.00
133,22132,1330.00
134,22196,1340.00
135,22292,1350.00
136,22452,1360.00
137,22556,1370.00
138,22532,1380.00
139,22388,1390.00
140,22252,1400.00
141,22244,1410.00
142,22304,1420.00
143,22384,1430.00
144,22436,1440.00
145,22464,1450.00
146,22472,1460.00
147,22472,1470.00
148,22504,1480.00
149,22584,1490.00
150,22668,1500.00
151,22740,1510.00
152,22784,1520.00
153,22844,1530.00
154,22908,1540.00
155,22964,1550.00
156,23004,1560.00
157,22908,1570.00
158,22612,1580.00
159,22348,1590.00
160,22256,1600.00
161,22300,1610.00
162,22384,1620.00
163,22464,1630.00
164,22532,1640.00
165,22528,1650.00
166,22492,1660.00
167,22500,1670.00
168,22528,1680.00
169,22548,1690.00
170,22568,1700.00
171,22584,1710.00
172,22592,1720.00
173,22620,1730.00
174,22688,1740.00
175,22768,1750.00
176,22840,1760.00
177,22764,1770.00
178,22556,1780.00
179,22388,1790.00
180,22328,1800.00
181,22376,1810.00
182,22456,1820.00
183,22536,1830.00
184,22560,1840.00
185,22552,1850.00
186,22572,1860.00
187,22624,1870.00
188,22704,1880.00
189,22784,1890.00
190,22880,1900.00
191,22960,1910.00
192,23032,1920.00
193,23100,1930.00
194,23164,1940.00
195,23224,1950.00
196,23288,1960.00
197,23356,1970.00
198,23288,1980.00
199,22988,1990.00
200,22688,2000.00
201,22572,2010.00
202,22580,2020.00
203,22600,2030.00
204,22596,2040.00
205,22568,2050.00
206,22500,2060.00
207,22352,2070.00
208,22192,2080.00
209,22104,2090.00
210,22108,2100.00
211,22136,2110.00
212,22240,2120.00
213,22304,2130.00
214,22296,2140.00
215,22396,2150.00
216,22484,2160.00
217,22532,2170.00
218,22568,2180.00
219,22612,2190.00
220,22596,2200.00
221,22360,2210.00
222,22028,2220.00
223,21828,2230.00
224,21828,2240.00
225,21864,2250.00
226,21928,2260.00
227,22048,2270.00
228,22048,2280.00
229,21984,2290.00
230,22020,2300.00
231,22132,2310.00
232,22248,2320.00
233,22348,2330.00
234,22436,2340.00
235,22516,2350.00
236,22580,2360.00
237,22632,2370.00
238,22680,2380.00
239,22732,2390.00
240,22788,2400.00
241,22848,2410.00
242,22884,2420.00
243,22728,2430.00
244,22380,2440.00
245,22124,2450.00
246,22140,2460.00
247,22380,2470.00
248,22368,2480.00
249,22404,2490.00
250,22420,2500.00
251,22412,2510.00
252,22412,2520.00
253,22456,2530.00
254,22536,2540.00
255,22624,2550.00
256,22712,2560.00
257,22784,2570.00
258,22844,2580.00
259,22896,2590.00
260,22940,2600.00
261,22988,2610.00
262,23036,2620.00
263,23080,2630.00
264,23136,2640.00
265,23188,2650.00
266,23188,2660.00
267,22936,2670.00
268,22556,2680.00
269,22348,2690.00
270,22328,2700.00
271,22380,2710.00
272,22428,2720.00
273,22484,2730.00
274,22516,2740.00
275,22512,2750.00
276,22512,2760.00
277,22540,2770.00
278,22604,2780.00
279,22676,2790.00
280,22748,2800.00
281,22816,2810.00
282,22872,2820.00
283,22920,2830.00
284,22972,2840.00
285,23016,2850.00
286,23072,2860.00
287,23128,2870.00
288,23184,2880.00
289,23240,2890.00
290,23288,2900.00
291,23204,2910.00
292,22848,2920.00
293,22496,2930.00
294,22368,2940.00
295,22400,2950.00
296,22460,2960.00
297,22520,2970.00
298,22576,2980.00
299,22592,2990.00
300,22588,3000.00
301,22604,3010.00
302,22656,3020.00
303,22724,3030.00
304,22796,3040.00
305,22868,3050.00
306,22936,3060.00
307,22980,3070.00
308,23024,3080.00
309,23072,3090.00
310,23120,3100.00
311,23172,3110.00
312,23224,3120.00
313,23284,3130.00
314,23332,3140.00
315,23208,3150.00
316,22848,3160.00
317,22520,3170.00
318,22416,3180.00
319,22452,3190.00
320,22508,3200.00
321,22568,3210.00
322,22616,3220.00
323,22632,3230.00
324,22628,3240.00
325,22632,3250.00
326,22652,3260.00
327,22700,3270.00
328,22764,3280.00
329,22824,3290.00
330,22876,3300.00
331,22924,3310.00
332,22968,3320.00
333,23008,3330.00
334,23060,3340.00
335,23116,3350.00
336,23184,3360.00
337,23164,3370.00
338,22880,3380.00
339,22548,3390.00
340,22396,3400.00
341,22404,3410.00
342,22460,3420.00
343,22536,3430.00
344,22576,3440.00
345,22564,3450.00
346,22500,3460.00
347,22468,3470.00
348,22492,3480.00
349,22564,3490.00
350,22652,3500.00
351,22724,3510.00
352,22764,3520.00
353,22780,3530.00
354,22796,3540.00
355,22812,3550.00
356,22844,3560.00
357,22772,3570.00
358,22484,3580.00
359,22224,3590.00
360,22172,3600.00
361,22244,3610.00
362,22340,3620.00
363,22440,3630.00
364,22532,3640.00
365,22592,3650.00
366,22588,3660.00
367,22592,3670.00
368,22648,3680.00
369,22732,3690.00
370,22832,3700.00
371,22932,3710.00
372,23028,3720.00
373,23096,3730.00
374,23056,3740.00
375,22760,3750.00
376,22396,3760.00
377,22224,3770.00
378,22236,3780.00
379,22316,3790.00
380,22424,3800.00
381,22512,3810.00
382,22552,3820.00
383,22540,3830.00
384,22524,3840.00
385,22560,3850.00
386,22648,3860.00
387,22744,3870.00
388,22816,3880.00
389,22884,3890.00
390,22940,3900.00
391,22840,3910.00
392,22500,3920.00
393,22212,3930.00
394,22132,3940.00
395,22204,3950.00
396,22288,3960.00
397,22384,3970.00
398,22468,3980.00
399,22496,3990.00
400,22496,4000.00
401,22520,4010.00
402,22580,4020.00
403,22656,4030.00
404,22744,4040.00
405,22812,4050.00
406,22872,4060.00
407,22924,4070.00
408,22972,4080.00
409,23024,4090.00
410,22972,4100.00
411,22652,4110.00
412,22308,4120.00
413,22196,4130.00
414,22248,4140.00
415,22328,4150.00
416,22396,4160.00
417,22468,4170.00
418,22516,4180.00
419,22528,4190.00
420,22540,4200.00
421,22592,4210.00
422,22664,4220.00
423,22748,4230.00
424,22828,4240.00
425,22896,4250.00
426,22952,4260.00
427,23000,4270.00
428,23052,4280.00
429,23108,4290.00
430,23128,4300.00
431,22920,4310.00
432,22572,4320.00
433,22372,4330.00
434,22364,4340.00
435,22440,4350.00
436,22512,4360.00
437,22612,4370.00
438,22692,4380.00
439,22716,4390.00
440,22716,4400.00
441,22744,4410.00
442,22788,4420.00
443,22848,4430.00
444,22928,4440.00
445,22996,4450.00
446,23044,4460.00
447,23100,4470.00
448,23160,4480.00
449,23204,4490.00
450,23080,4500.00
451,22800,4510.00
452,22580,4520.00
453,22544,4530.00
454,22628,4540.00
455,22728,4550.00
456,22832,4560.00
457,22900,4570.00
458,22920,4580.00
459,22920,4590.00
460,22948,4600.00
461,22996,4610.00
462,23068,4620.00
463,23144,4630.00
464,23208,4640.00
465,23268,4650.00
466,23320,4660.00
467,23372,4670.00
468,23420,4680.00
469,23340,4690.00
470,23052,4700.00
471,22740,4710.00
472,22604,4720.00
473,22632,4730.00
474,22712,4740.00
475,22800,4750.00
476,22868,4760.00
477,22892,4770.00
478,22888,4780.00
479,22904,4790.00
480,22956,4800.00
481,23032,4810.00
482,23112,4820.00
483,23188,4830.00
484,23256,4840.00
485,23320,4850.00
486,23368,4860.00
487,23416,4870.00
488,23460,4880.00
489,23488,4890.00
490,23336,4900.00
491,22992,4910.00
492,22680,4920.00
493,22572,4930.00
494,22632,4940.00
495,22720,4950.00
496,22808,4960.00
497,22872,4970.00
498,22888,4980.00
499,22884,4990.00
500,22896,5000.00
501,22948,5010.00
502,23020,5020.00
503,23096,5030.00
504,23168,5040.00
505,23232,5050.00
506,23284,5060.00
507,23328,5070.00
508,23368,5080.00
509,23412,5090.00
510,23460,5100.00
511,23452,5110.00
512,23200,5120.00
513,22828,5130.00
514,22584,5140.00
515,22568,5150.00
516,22664,5160.00
517,22760,5170.00
518,22848,5180.00
519,22892,5190.00
520,22892,5200.00
521,22880,5210.00
522,22912,5220.00
523,22976,5230.00
524,23052,5240.00
525,23136,5250.00
526,23216,5260.00
527,23284,5270.00
528,23340,5280.00
529,23392,5290.00
530,23444,5300.00
531,23488,5310.00
532,23536,5320.00
533,23544,5330.00
534,23304,5340.00
535,22936,5350.00
536,22664,5360.00
537,22608,5370.00
538,22692,5380.00
539,22804,5390.00
540,22916,5400.00
541,22972,5410.00
542,22976,5420.00
543,22964,5430.00
544,22984,5440.00
545,23024,5450.00
546,23088,5460.00
547,23160,5470.00
548,23232,5480.00
549,23288,5490.00
550,23344,5500.00
551,23400,5510.00
552,23448,5520.00
553,23492,5530.00
554,23548,5540.00
555,23480,5550.00
556,23188,5560.00
557,22860,5570.00
558,22680,5580.00
559,22676,5590.00
560,22760,5600.00
561,22860,5610.00
562,22948,5620.00
563,22968,5630.00
564,22944,5640.00
565,22940,5650.00
566,22960,5660.00
567,23000,5670.00
568,23060,5680.00
569,23132,5690.00
570,23208,5700.00
571,23268,5710.00
572,23324,5720.00
573,23372,5730.00
574,23280,5740.00
575,22960,5750.00
576,22648,5760.00
577,22536,5770.00
578,22600,5780.00
579,22720,5790.00
580,22844,5800.00
581,22924,5810.00
582,22932,5820.00
583,22912,5830.00
584,22928,5840.00
585,22980,5850.00
586,23048,5860.00
587,23112,5870.00
588,23176,5880.00
589,23232,5890.00
590,23276,5900.00
591,23316,5910.00
592,23352,5920.00
593,23288,5930.00
594,22956,5940.00
595,22584,5950.00
596,22424,5960.00
597,22460,5970.00
598,22564,5980.00
599,22680,5990.00
600,22764,6000.00
601,22788,6010.00
602,22768,6020.00
603,22768,6030.00
604,22796,6040.00
605,22860,6050.00
606,22928,6060.00
607,23004,6070.00
608,23068,6080.00
609,23116,6090.00
610,23156,6100.00
611,23192,6110.00
612,23112,6120.00
613,22756,6130.00
614,22396,6140.00
615,22264,6150.00
616,22300,6160.00
617,22380,6170.00
618,22464,6180.00
619,22524,6190.00
620,22516,6200.00
621,22484,6210.00
622,22488,6220.00
623,22544,6230.00
624,22616,6240.00
625,22692,6250.00
626,22748,6260.00
627,22804,6270.00
628,22836,6280.00
629,22868,6290.00
630,22908,6300.00
631,22976,6310.00
632,22900,6320.00
633,22548,6330.00
634,22236,6340.00
635,22144,6350.00
636,22216,6360.00
637,22332,6370.00
638,22436,6380.00
639,22492,6390.00
640,22472,6400.00
641,22432,6410.00
642,22436,6420.00
643,22488,6430.00
644,22576,6440.00
645,22672,6450.00
646,22764,6460.00
647,22836,6470.00
648,22892,6480.00
649,22932,6490.00
650,22964,6500.00
651,22996,6510.00
652,22896,6520.00
653,22528,6530.00
654,22212,6540.00
655,22140,6550.00
656,22224,6560.00
657,22348,6570.00
658,22464,6580.00
659,22544,6590.00
660,22544,6600.00
661,22524,6610.00
662,22532,6620.00
663,22584,6630.00
664,22668,6640.00
665,22748,6650.00
666,22816,6660.00
667,22880,6670.00
668,22932,6680.00
669,22964,6690.00
670,22996,6700.00
671,23040,6710.00
672,22920,6720.00
673,22540,6730.00
674,22244,6740.00
675,22200,6750.00
676,22300,6760.00
677,22428,6770.00
678,22548,6780.00
679,22596,6790.00
680,22556,6800.00
681,22508,6810.00
682,22516,6820.00
683,22568,6830.00
684,22640,6840.00
685,22724,6850.00
686,22796,6860.00
687,22856,6870.00
688,22916,6880.00
689,22964,6890.00
690,22888,6900.00
691,22560,6910.00
692,22284,6920.00
693,22228,6930.00
694,22316,6940.00
695,22444,6950.00
696,22584,6960.00
697,22620,6970.00
698,22568,6980.00
699,22512,6990.00
700,22504,7000.00
701,22552,7010.00
702,22624,7020.00
703,22700,7030.00
704,22764,7040.00
705,22816,7050.00
706,22824,7060.00
707,22608,7070.00
708,22296,7080.00
709,22160,7090.00
710,22212,7100.00
711,22332,7110.00
712,22456,7120.00
713,22524,7130.00
714,22508,7140.00
715,22472,7150.00
716,22476,7160.00
717,22528,7170.00
718,22608,7180.00
719,22692,7190.00
720,22772,7200.00
721,22852,7210.00
722,22876,7220.00
723,22708,7230.00
724,22468,7240.00
725,22348,7250.00
726,22388,7260.00
727,22480,7270.00
728,22584,7280.00
729,22648,7290.00
730,22660,7300.00
731,22660,7310.00
732,22688,7320.00
733,22748,7330.00
734,22820,7340.00
735,22892,7350.00
736,22960,7360.00
737,23020,7370.00
738,23036,7380.00
739,22920,7390.00
740,22772,7400.00
741,22712,7410.00
742,22736,7420.00
743,22796,7430.00
744,22876,7440.00
745,22932,7450.00
746,22952,7460.00
747,22968,7470.00
748,22996,7480.00
749,23040,7490.00
750,23092,7500.00
751,23144,7510.00
752,23192,7520.00
753,23240,7530.00
754,23276,7540.00
755,23272,7550.00
756,23160,7560.00
757,23044,7570.00
758,23000,7580.00
759,23020,7590.00
760,23056,7600.00
761,23104,7610.00
762,23116,7620.00
763,23116,7630.00
764,23132,7640.00
765,23160,7650.00
766,23208,7660.00
767,23256,7670.00
768,23296,7680.00
769,23336,7690.00
770,23376,7700.00
771,23408,7710.00
772,23440,7720.00
773,23404,7730.00
774,23308,7740.00
775,23244,7750.00
776,23248,7760.00
777,23280,7770.00
778,23324,7780.00
779,23364,7790.00
780,23388,7800.00
781,23400,7810.00
782,23408,7820.00
783,23432,7830.00
784,23476,7840.00
785,23516,7850.00
786,23556,7860.00
787,23596,7870.00
788,23636,7880.00
789,23676,7890.00
790,23716,7900.00
791,23756,7910.00
792,23800,7920.00
793,23776,7930.00
794,23692,7940.00
795,23644,7950.00
796,23652,7960.00
797,23676,7970.00
798,23696,7980.00
799,23720,7990.00
800,23740,8000.00
801,23744,8010.00
802,23756,8020.00
803,23792,8030.00
804,23832,8040.00
805,23872,8050.00
806,23912,8060.00
807,23948,8070.00
808,23972,8080.00
809,24004,8090.00
810,24036,8100.00
811,24068,8110.00
812,24100,8120.00
813,24096,8130.00
814,24032,8140.00
815,23984,8150.00
816,23988,8160.00
817,24024,8170.00
818,24052,8180.00
819,24076,8190.00
820,24096,8200.00
821,24100,8210.00
822,24112,8220.00
823,24132,8230.00
824,24160,8240.00
825,24192,8250.00
826,24220,8260.00
827,24240,8270.00
828,24260,8280.00
829,24280,8290.00
830,24304,8300.00
831,24324,8310.00
832,24316,8320.00
833,24264,8330.00
834,24232,8340.00
835,24244,8350.00
836,24280,8360.00
837,24308,8370.00
838,24328,8380.00
839,24340,8390.00
840,24340,8400.00
841,24344,8410.00
842,24360,8420.00
843,24380,8430.00
844,24404,8440.00
845,24424,8450.00
846,24444,8460.00
847,24464,8470.00
848,24488,8480.00
849,24460,8490.00
850,24400,8500.00
851,24376,8510.00
852,24392,8520.00
853,24408,8530.00
854,24432,8540.00
855,24444,8550.00
856,24440,8560.00
857,24428,8570.00
858,24432,8580.00
859,24452,8590.00
860,24460,8600.00
861,24488,8610.00
862,24508,8620.00
863,24528,8630.00
864,24536,8640.00
865,24500,8650.00
866,24444,8660.00
867,24420,8670.00
868,24436,8680.00
869,24452,8690.00
870,24460,8700.00
871,24472,8710.00
872,24472,8720.00
873,24472,8730.00
874,24484,8740.00
875,24508,8750.00
876,24528,8760.00
877,24552,8770.00
878,24568,8780.00
879,24592,8790.00
880,24612,8800.00
881,24640,8810.00
882,24600,8820.00
883,24544,8830.00
884,24528,8840.00
885,24548,8850.00
886,24560,8860.00
887,24572,8870.00
888,24592,8880.00
889,24600,8890.00
890,24608,8900.00
891,24624,8910.00
892,24648,8920.00
893,24680,8930.00
894,24704,8940.00
895,24728,8950.00
896,24748,8960.00
897,24760,8970.00
898,24776,8980.00
899,24804,8990.00
900,24824,9000.00
901,24848,9010.00
902,24868,9020.00
903,24844,9030.00
904,24788,9040.00
905,24772,9050.00
906,24792,9060.00
907,24820,9070.00
908,24836,9080.00
909,24852,9090.00
910,24864,9100.00
911,24868,9110.00
912,24872,9120.00
913,24888,9130.00
914,24908,9140.00
915,24920,9150.00
916,24928,9160.00
917,24940,9170.00
918,24960,9180.00
919,24972,9190.00
920,24988,9200.00
921,25004,9210.00
922,25020,9220.00
923,25040,9230.00
924,25048,9240.00
925,25008,9250.00
926,24980,9260.00
927,24984,9270.00
928,25012,9280.00
929,25032,9290.00
930,25048,9300.00
931,25052,9310.00
932,25044,9320.00
933,25040,9330.00
934,25056,9340.00
935,25076,9350.00
936,25100,9360.00
937,25124,9370.00
938,25144,9380.00
939,25164,9390.00
940,25184,9400.00
941,25196,9410.00
942,25204,9420.00
943,25224,9430.00
944,25252,9440.00
945,25264,9450.00
946,25204,9460.00
947,25136,9470.00
948,25112,9480.00
949,25116,9490.00
950,25120,9500.00
951,25128,9510.00
952,25140,9520.00
953,25140,9530.00
954,25140,9540.00
955,25156,9550.00
956,25172,9560.00
957,25180,9570.00
958,25188,9580.00
959,25200,9590.00
960,25208,9600.00
961,25212,9610.00
962,25212,9620.00
963,25220,9630.00
964,25224,9640.00
965,25240,9650.00
966,25204,9660.00
967,25136,9670.00
968,25088,9680.00
969,25088,9690.00
970,25096,9700.00
971,25096,9710.00
972,25092,9720.00
973,25068,9730.00
974,25052,9740.00
975,25040,9750.00
976,25040,9760.00
977,25052,9770.00
978,25060,9780.00
979,25072,9790.00
980,25076,9800.00
981,25084,9810.00
982,25100,9820.00
983,25112,9830.00
984,25132,9840.00
985,25144,9850.00
986,25104,9860.00
987,25012,9870.00
988,24952,9880.00
989,24948,9890.00
990,24952,9900.00
991,24948,9910.00
992,24944,9920.00
993,24936,9930.00
994,24916,9940.00
995,24904,9950.00
996,24904,9960.00
997,24916,9970.00
998,24932,9980.00
999,24948,9990.00
1000,24964,10000.00
1001,24980,10010.00
1002,24988,10020.00
1003,25000,10030.00
1004,25016,10040.00
1005,25016,10050.00
1006,24944,10060.00
1007,24860,10070.00
1008,24820,10080.00
1009,24824,10090.00
1010,24840,10100.00
1011,24860,10110.00
1012,24872,10120.00
1013,24872,10130.00
1014,24860,10140.00
1015,24864,10150.00
1016,24876,10160.00
1017,24896,10170.00
1018,24920,10180.00
1019,24940,10190.00
1020,24960,10200.00
1021,24976,10210.00
1022,24996,10220.00
1023,24952,10230.00
1024,24860,10240.00
1025,24808,10250.00
1026,24812,10260.00
1027,24844,10270.00
1028,24876,10280.00
1029,24908,10290.00
1030,24924,10300.00
1031,24924,10310.00
1032,24928,10320.00
1033,24948,10330.00
1034,24972,10340.00
1035,24996,10350.00
1036,25020,10360.00
1037,25044,10370.00
1038,25068,10380.00
1039,25076,10390.00
1040,25000,10400.00
1041,24908,10410.00
1042,24864,10420.00
1043,24868,10430.00
1044,24896,10440.00
1045,24928,10450.00
1046,24948,10460.00
1047,24952,10470.00
1048,24948,10480.00
1049,24952,10490.00
1050,24960,10500.00
1051,24972,10510.00
1052,24988,10520.00
1053,25012,10530.00
1054,25032,10540.00
1055,25044,10550.00
1056,24972,10560.00
1057,24864,10570.00
1058,24792,10580.00
1059,24780,10590.00
1060,24800,10600.00
1061,24824,10610.00
1062,24844,10620.00
1063,24844,10630.00
1064,24832,10640.00
1065,24824,10650.00
1066,24824,10660.00
1067,24832,10670.00
1068,24852,10680.00
1069,24876,10690.00
1070,24896,10700.00
1071,24892,10710.00
1072,24788,10720.00
1073,24668,10730.00
1074,24604,10740.00
1075,24600,10750.00
1076,24628,10760.00
1077,24652,10770.00
1078,24676,10780.00
1079,24676,10790.00
1080,24660,10800.00
1081,24652,10810.00
1082,24660,10820.00
1083,24680,10830.00
1084,24704,10840.00
1085,24724,10850.00
1086,24748,10860.00
1087,24672,10870.00
1088,24528,10880.00
1089,24424,10890.00
1090,24396,10900.00
1091,24412,10910.00
1092,24440,10920.00
1093,24468,10930.00
1094,24476,10940.00
1095,24464,10950.00
1096,24456,10960.00
1097,24460,10970.00
1098,24480,10980.00
1099,24516,10990.00
1100,24540,11000.00
1101,24572,11010.00
1102,24572,11020.00
1103,24444,11030.00
1104,24280,11040.00
1105,24196,11050.00
1106,24188,11060.00
1107,24212,11070.00
1108,24248,11080.00
1109,24276,11090.00
1110,24284,11100.00
1111,24276,11110.00
1112,24272,11120.00
1113,24292,11130.00
1114,24332,11140.00
1115,24364,11150.00
1116,24404,11160.00
1117,24440,11170.00
1118,24476,11180.00
1119,24476,11190.00
1120,24348,11200.00
1121,24164,11210.00
1122,24052,11220.00
1123,24028,11230.00
1124,24048,11240.00
1125,24080,11250.00
1126,24112,11260.00
1127,24120,11270.00
1128,24112,11280.00
1129,24112,11290.00
1130,24132,11300.00
1131,24164,11310.00
1132,24208,11320.00
1133,24256,11330.00
1134,24304,11340.00
1135,24348,11350.00
1136,24392,11360.00
1137,24432,11370.00
1138,24472,11380.00
1139,24452,11390.00
1140,24304,11400.00
1141,24104,11410.00
1142,23980,11420.00
1143,23948,11430.00
1144,23960,11440.00
1145,23992,11450.00
1146,24016,11460.00
1147,24020,11470.00
1148,24012,11480.00
1149,24020,11490.00
1150,24040,11500.00
1151,24076,11510.00
1152,24124,11520.00
1153,24172,11530.00
1154,24212,11540.00
1155,24256,11550.00
1156,24300,11560.00
1157,24340,11570.00
1158,24376,11580.00
1159,24416,11590.00
1160,24460,11600.00
1161,24500,11610.00
1162,24436,11620.00
1163,24252,11630.00
1164,24068,11640.00
1165,23984,11650.00
1166,23980,11660.00
1167,24004,11670.00
1168,24036,11680.00
1169,24060,11690.00
1170,24060,11700.00
1171,24052,11710.00
1172,24060,11720.00
1173,24084,11730.00
1174,24124,11740.00
1175,24176,11750.00
1176,24220,11760.00
1177,24268,11770.00
1178,24320,11780.00
1179,24364,11790.00
1180,24408,11800.00
1181,24456,11810.00
1182,24504,11820.00
1183,24552,11830.00
1184,24580,11840.00
1185,24472,11850.00
1186,24276,11860.00
1187,24100,11870.00
1188,24028,11880.00
1189,24024,11890.00
1190,24048,11900.00
1191,24076,11910.00
1192,24088,11920.00
1193,24080,11930.00
1194,24072,11940.00
1195,24072,11950.00
1196,24104,11960.00
1197,24144,11970.00
1198,24192,11980.00
1199,24240,11990.00
1200,24284,12000.00
1201,24328,12010.00
1202,24368,12020.00
1203,24400,12030.00
1204,24440,12040.00
1205,24456,12050.00
1206,24352,12060.00
1207,24152,12070.00
1208,24000,12080.00
1209,23936,12090.00
1210,23940,12100.00
1211,23972,12110.00
1212,24008,12120.00
1213,24032,12130.00
1214,24020,12140.00
1215,24004,12150.00
1216,24016,12160.00
1217,24048,12170.00
1218,24088,12180.00
1219,24136,12190.00
1220,24180,12200.00
1221,24224,12210.00
1222,24264,12220.00
1223,24296,12230.00
1224,24256,12240.00
1225,24064,12250.00
1226,23856,12260.00
1227,23744,12270.00
1228,23728,12280.00
1229,23760,12290.00
1230,23812,12300.00
1231,23856,12310.00
1232,23860,12320.00
1233,23844,12330.00
1234,23844,12340.00
1235,23872,12350.00
1236,23916,12360.00
1237,23972,12370.00
1238,24024,12380.00
1239,24076,12390.00
1240,24120,12400.00
1241,24164,12410.00
1242,24200,12420.00
1243,24224,12430.00
1244,24120,12440.00
1245,23864,12450.00
1246,23620,12460.00
1247,23516,12470.00
1248,23504,12480.00
1249,23524,12490.00
1250,23564,12500.00
1251,23596,12510.00
1252,23596,12520.00
1253,23588,12530.00
1254,23604,12540.00
1255,23652,12550.00
1256,23712,12560.00
1257,23776,12570.00
1258,23832,12580.00
1259,23888,12590.00
1260,23928,12600.00
1261,23968,12610.00
1262,24004,12620.00
1263,24040,12630.00
1264,24056,12640.00
1265,23908,12650.00
1266,23632,12660.00
1267,23416,12670.00
1268,23348,12680.00
1269,23376,12690.00
1270,23424,12700.00
1271,23484,12710.00
1272,23520,12720.00
1273,23528,12730.00
1274,23532,12740.00
1275,23556,12750.00
1276,23608,12760.00
1277,23672,12770.00
1278,23736,12780.00
1279,23788,12790.00
1280,23836,12800.00
1281,23872,12810.00
1282,23908,12820.00
1283,23944,12830.00
1284,23984,12840.00
1285,24028,12850.00
1286,24072,12860.00
1287,24120,12870.00
1288,24172,12880.00
1289,24216,12890.00
1290,24256,12900.00
1291,24296,12910.00
1292,24220,12920.00
1293,23956,12930.00
1294,23648,12940.00
1295,23480,12950.00
1296,23452,12960.00
1297,23484,12970.00
1298,23528,12980.00
1299,23568,12990.00
1300,23580,13000.00
1301,23568,13010.00
1302,23572,13020.00
1303,23608,13030.00
1304,23664,13040.00
1305,23720,13050.00
1306,23780,13060.00
1307,23836,13070.00
1308,23880,13080.00
1309,23912,13090.00
1310,23944,13100.00
1311,23984,13110.00
1312,24020,13120.00
1313,24064,13130.00
1314,24108,13140.00
1315,24152,13150.00
1316,24196,13160.00
1317,24236,13170.00
1318,24140,13180.00
1319,23876,13190.00
1320,23596,13200.00
1321,23468,13210.00
1322,23472,13220.00
1323,23520,13230.00
1324,23576,13240.00
1325,23608,13250.00
1326,23616,13260.00
1327,23600,13270.00
1328,23604,13280.00
1329,23644,13290.00
1330,23704,13300.00
1331,23772,13310.00
1332,23832,13320.00
1333,23892,13330.00
1334,23940,13340.00
1335,23984,13350.00
1336,24020,13360.00
1337,24060,13370.00
1338,24104,13380.00
1339,24140,13390.00
1340,24172,13400.00
1341,24220,13410.00
1342,24208,13420.00
1343,24020,13430.00
1344,23740,13440.00
1345,23548,13450.00
1346,23500,13460.00
1347,23532,13470.00
1348,23600,13480.00
1349,23660,13490.00
1350,23668,13500.00
1351,23652,13510.00
1352,23636,13520.00
1353,23648,13530.00
1354,23692,13540.00
1355,23744,13550.00
1356,23804,13560.00
1357,23856,13570.00
1358,23896,13580.00
1359,23932,13590.00
1360,23964,13600.00
1361,24000,13610.00
1362,24032,13620.00
1363,24076,13630.00
1364,24100,13640.00
1365,23960,13650.00
1366,23680,13660.00
1367,23464,13670.00
1368,23412,13680.00
1369,23452,13690.00
1370,23512,13700.00
1371,23572,13710.00
1372,23600,13720.00
1373,23584,13730.00
1374,23568,13740.00
1375,23580,13750.00
1376,23628,13760.00
1377,23688,13770.00
1378,23756,13780.00
1379,23816,13790.00
1380,23864,13800.00
1381,23904,13810.00
1382,23932,13820.00
1383,23968,13830.00
1384,23996,13840.00
1385,24020,13850.00
1386,24060,13860.00
1387,24060,13870.00
1388,23876,13880.00
1389,23556,13890.00
1390,23348,13900.00
1391,23320,13910.00
1392,23372,13920.00
1393,23428,13930.00
1394,23488,13940.00
1395,23516,13950.00
1396,23500,13960.00
1397,23492,13970.00
1398,23512,13980.00
1399,23560,13990.00
1400,23620,14000.00
1401,23672,14010.00
1402,23724,14020.00
1403,23764,14030.00
1404,23792,14040.00
1405,23824,14050.00
1406,23852,14060.00
1407,23888,14070.00
1408,23924,14080.00
1409,23968,14090.00
1410,24004,14100.00
1411,23888,14110.00
1412,23580,14120.00
1413,23308,14130.00
1414,23240,14140.00
1415,23284,14150.00
1416,23340,14160.00
1417,23404,14170.00
1418,23440,14180.00
1419,23444,14190.00
1420,23428,14200.00
1421,23440,14210.00
1422,23488,14220.00
1423,23556,14230.00
1424,23624,14240.00
1425,23688,14250.00
1426,23736,14260.00
1427,23776,14270.00
1428,23808,14280.00
1429,23836,14290.00
1430,23868,14300.00
1431,23896,14310.00
1432,23928,14320.00
1433,23968,14330.00
1434,24000,14340.00
1435,23920,14350.00
1436,23636,14360.00
1437,23352,14370.00
1438,23256,14380.00
1439,23308,14390.00
1440,23388,14400.00
1441,23472,14410.00
1442,23512,14420.00
1443,23508,14430.00
1444,23476,14440.00
1445,23476,14450.00
1446,23508,14460.00
1447,23568,14470.00
1448,23640,14480.00
1449,23692,14490.00
1450,23740,14500.00
1451,23776,14510.00
1452,23812,14520.00
1453,23836,14530.00
1454,23868,14540.00
1455,23912,14550.00
1456,23948,14560.00
1457,23864,14570.00
1458,23576,14580.00
1459,23308,14590.00
1460,23236,14600.00
1461,23292,14610.00
1462,23364,14620.00
1463,23436,14630.00
1464,23480,14640.00
1465,23472,14650.00
1466,23464,14660.00
1467,23492,14670.00
1468,23548,14680.00
1469,23620,14690.00
1470,23692,14700.00
1471,23744,14710.00
1472,23776,14720.00
1473,23800,14730.00
1474,23820,14740.00
1475,23840,14750.00
1476,23860,14760.00
1477,23884,14770.00
1478,23924,14780.00
1479,23956,14790.00
1480,23836,14800.00
1481,23512,14810.00
1482,23236,14820.00
1483,23168,14830.00
1484,23224,14840.00
1485,23288,14850.00
1486,23348,14860.00
1487,23388,14870.00
1488,23388,14880.00
1489,23372,14890.00
1490,23376,14900.00
1491,23416,14910.00
1492,23476,14920.00
1493,23544,14930.00
1494,23604,14940.00
1495,23652,14950.00
1496,23688,14960.00
1497,23732,14970.00
1498,23760,14980.00
1499,23796,14990.00
1500,23836,15000.00
1501,23880,15010.00
1502,23920,15020.00
1503,23932,15030.00
1504,23736,15040.00
1505,23384,15050.00
1506,23148,15060.00
1507,23116,15070.00
1508,23188,15080.00
1509,23252,15090.00
1510,23312,15100.00
1511,23348,15110.00
1512,23360,15120.00
1513,23356,15130.00
1514,23384,15140.00
1515,23444,15150.00
1516,23524,15160.00
1517,23596,15170.00
1518,23660,15180.00
1519,23712,15190.00
1520,23748,15200.00
1521,23780,15210.00
1522,23808,15220.00
1523,23844,15230.00
1524,23884,15240.00
1525,23928,15250.00
1526,23976,15260.00
1527,24012,15270.00
1528,23876,15280.00
1529,23560,15290.00
1530,23296,15300.00
1531,23220,15310.00
1532,23264,15320.00
1533,23336,15330.00
1534,23408,15340.00
1535,23448,15350.00
1536,23432,15360.00
1537,23400,15370.00
1538,23400,15380.00
1539,23432,15390.00
1540,23500,15400.00
1541,23564,15410.00
1542,23628,15420.00
1543,23684,15430.00
1544,23736,15440.00
1545,23784,15450.00
1546,23836,15460.00
1547,23892,15470.00
1548,23944,15480.00
1549,23912,15490.00
1550,23684,15500.00
1551,23420,15510.00
1552,23304,15520.00
1553,23340,15530.00
1554,23420,15540.00
1555,23504,15550.00
1556,23572,15560.00
1557,23584,15570.00
1558,23564,15580.00
1559,23560,15590.00
1560,23600,15600.00
1561,23676,15610.00
1562,23768,15620.00
1563,23856,15630.00
1564,23912,15640.00
1565,23952,15650.00
1566,23988,15660.00
1567,24020,15670.00
1568,23948,15680.00
1569,23700,15690.00
1570,23468,15700.00
1571,23384,15710.00
1572,23400,15720.00
1573,23472,15730.00
1574,23560,15740.00
1575,23612,15750.00
1576,23600,15760.00
1577,23576,15770.00
1578,23588,15780.00
1579,23636,15790.00
1580,23712,15800.00
1581,23792,15810.00
1582,23860,15820.00
1583,23912,15830.00
1584,23952,15840.00
1585,23900,15850.00
1586,23648,15860.00
1587,23384,15870.00
1588,23296,15880.00
1589,23340,15890.00
1590,23412,15900.00
1591,23488,15910.00
1592,23548,15920.00
1593,23564,15930.00
1594,23556,15940.00
1595,23560,15950.00
1596,23600,15960.00
1597,23668,15970.00
1598,23744,15980.00
1599,23808,15990.00
1600,23860,16000.00
1601,23904,16010.00
1602,23948,16020.00
1603,23984,16030.00
1604,24024,16040.00
1605,24072,16050.00
1606,24112,16060.00
1607,24160,16070.00
1608,24084,16080.00
1609,23800,16090.00
1610,23524,16100.00
1611,23412,16110.00
1612,23436,16120.00
1613,23488,16130.00
1614,23528,16140.00
1615,23568,16150.00
1616,23584,16160.00
1617,23588,16170.00
1618,23600,16180.00
1619,23648,16190.00
1620,23712,16200.00
1621,23784,16210.00
1622,23852,16220.00
1623,23908,16230.00
1624,23972,16240.00
1625,24024,16250.00
1626,24076,16260.00
1627,24132,16270.00
1628,24188,16280.00
1629,24232,16290.00
1630,24284,16300.00
1631,24248,16310.00
1632,24112,16320.00
1633,23988,16330.00
1634,23936,16340.00
1635,23948,16350.00
1636,23968,16360.00
1637,23996,16370.00
1638,24028,16380.00
1639,24044,16390.00
1640,24052,16400.00
1641,24072,16410.00
1642,24112,16420.00
1643,24164,16430.00
1644,24208,16440.00
1645,24256,16450.00
1646,24300,16460.00
1647,24340,16470.00
1648,24384,16480.00
1649,24424,16490.00
1650,24468,16500.00
1651,24512,16510.00
1652,24548,16520.00
1653,24492,16530.00
1654,24388,16540.00
1655,24332,16550.00
1656,24332,16560.00
1657,24356,16570.00
1658,24372,16580.00
1659,24396,16590.00
1660,24408,16600.00
1661,24412,16610.00
1662,24420,16620.00
1663,24440,16630.00
1664,24472,16640.00
1665,24516,16650.00
1666,24556,16660.00
1667,24600,16670.00
1668,24636,16680.00
1669,24676,16690.00
1670,24712,16700.00
1671,24744,16710.00
1672,24780,16720.00
1673,24816,16730.00
1674,24848,16740.00
1675,24808,16750.00
1676,24732,16760.00
1677,24692,16770.00
1678,24700,16780.00
1679,24724,16790.00
1680,24748,16800.00
1681,24772,16810.00
1682,24784,16820.00
1683,24800,16830.00
1684,24824,16840.00
1685,24856,16850.00
1686,24880,16860.00
1687,24908,16870.00
1688,24936,16880.00
1689,24960,16890.00
1690,24980,16900.00
1691,24996,16910.00
1692,25024,16920.00
1693,25048,16930.00
1694,25076,16940.00
1695,25108,16950.00
1696,25128,16960.00
1697,25092,16970.00
1698,25040,16980.00
1699,25028,16990.00
1700,25044,17000.00
1701,25064,17010.00
1702,25076,17020.00
1703,25092,17030.00
1704,25096,17040.00
1705,25088,17050.00
1706,25088,17060.00
1707,25104,17070.00
1708,25124,17080.00
1709,25140,17090.00
1710,25164,17100.00
1711,25180,17110.00
1712,25200,17120.00
1713,25220,17130.00
1714,25240,17140.00
1715,25256,17150.00
1716,25280,17160.00
1717,25300,17170.00
1718,25312,17180.00
1719,25268,17190.00
1720,25212,17200.00
1721,25196,17210.00
1722,25208,17220.00
1723,25224,17230.00
1724,25232,17240.00
1725,25244,17250.00
1726,25248,17260.00
1727,25252,17270.00
1728,25260,17280.00
1729,25276,17290.00
1730,25296,17300.00
1731,25316,17310.00
1732,25332,17320.00
1733,25348,17330.00
1734,25352,17340.00
1735,25364,17350.00
1736,25372,17360.00
1737,25388,17370.00
1738,25396,17380.00
1739,25412,17390.00
1740,25432,17400.00
1741,25448,17410.00
1742,25444,17420.00
1743,25388,17430.00
1744,25348,17440.00
1745,25340,17450.00
1746,25356,17460.00
1747,25360,17470.00
1748,25364,17480.00
1749,25372,17490.00
1750,25360,17500.00
1751,25352,17510.00
1752,25352,17520.00
1753,25356,17530.00
1754,25372,17540.00
1755,25384,17550.00
1756,25400,17560.00
1757,25408,17570.00
1758,25420,17580.00
1759,25428,17590.00
1760,25444,17600.00
1761,25452,17610.00
1762,25468,17620.00
1763,25480,17630.00
1764,25492,17640.00
1765,25496,17650.00
1766,25504,17660.00
1767,25456,17670.00
1768,25380,17680.00
1769,25332,17690.00
1770,25320,17700.00
1771,25328,17710.00
1772,25328,17720.00
1773,25324,17730.00
1774,25320,17740.00
1775,25312,17750.00
1776,25296,17760.00
1777,25292,17770.00
1778,25300,17780.00
1779,25308,17790.00
1780,25312,17800.00
1781,25312,17810.00
1782,25320,17820.00
1783,25324,17830.00
1784,25332,17840.00
1785,25340,17850.00
1786,25352,17860.00
1787,25368,17870.00
1788,25376,17880.00
1789,25392,17890.00
1790,25408,17900.00
1791,25416,17910.00
1792,25380,17920.00
1793,25284,17930.00
1794,25204,17940.00
1795,25176,17950.00
1796,25168,17960.00
1797,25168,17970.00
1798,25160,17980.00
1799,25148,17990.00
1800,25128,18000.00
1801,25116,18010.00
1802,25112,18020.00
1803,25116,18030.00
1804,25132,18040.00
1805,25148,18050.00
1806,25156,18060.00
1807,25168,18070.00
1808,25180,18080.00
1809,25192,18090.00
1810,25196,18100.00
1811,25208,18110.00
1812,25220,18120.00
1813,25236,18130.00
1814,25244,18140.00
1815,25268,18150.00
1816,25256,18160.00
1817,25164,18170.00
1818,25068,18180.00
1819,25028,18190.00
1820,25028,18200.00
1821,25028,18210.00
1822,25036,18220.00
1823,25036,18230.00
1824,25016,18240.00
1825,24988,18250.00
1826,24968,18260.00
1827,24972,18270.00
1828,24984,18280.00
1829,25000,18290.00
1830,25012,18300.00
1831,25028,18310.00
1832,25048,18320.00
1833,25060,18330.00
1834,25080,18340.00
1835,25092,18350.00
1836,25112,18360.00
1837,25128,18370.00
1838,25152,18380.00
1839,25116,18390.00
1840,24996,18400.00
1841,24880,18410.00
1842,24828,18420.00
1843,24828,18430.00
1844,24824,18440.00
1845,24824,18450.00
1846,24828,18460.00
1847,24816,18470.00
1848,24796,18480.00
1849,24796,18490.00
1850,24808,18500.00
1851,24836,18510.00
1852,24852,18520.00
1853,24884,18530.00
1854,24908,18540.00
1855,24920,18550.00
1856,24936,18560.00
1857,24952,18570.00
1858,24972,18580.00
1859,24996,18590.00
1860,25012,18600.00
1861,25040,18610.00
1862,25024,18620.00
1863,24900,18630.00
1864,24760,18640.00
1865,24680,18650.00
1866,24664,18660.00
1867,24660,18670.00
1868,24672,18680.00
1869,24676,18690.00
1870,24668,18700.00
1871,24644,18710.00
1872,24632,18720.00
1873,24644,18730.00
1874,24672,18740.00
1875,24700,18750.00
1876,24732,18760.00
1877,24764,18770.00
1878,24796,18780.00
1879,24820,18790.00
1880,24844,18800.00
1881,24872,18810.00
1882,24892,18820.00
1883,24920,18830.00
1884,24952,18840.00
1885,24924,18850.00
1886,24784,18860.00
1887,24616,18870.00
1888,24520,18880.00
1889,24500,18890.00
1890,24500,18900.00
1891,24512,18910.00
1892,24528,18920.00
1893,24528,18930.00
1894,24512,18940.00
1895,24508,18950.00
1896,24532,18960.00
1897,24560,18970.00
1898,24596,18980.00
1899,24636,18990.00
1900,24672,19000.00
1901,24696,19010.00
1902,24724,19020.00
1903,24744,19030.00
1904,24772,19040.00
1905,24800,19050.00
1906,24828,19060.00
1907,24860,19070.00
1908,24848,19080.00
1909,24708,19090.00
1910,24536,19100.00
1911,24436,19110.00
1912,24420,19120.00
1913,24428,19130.00
1914,24456,19140.00
1915,24480,19150.00
1916,24476,19160.00
1917,24448,19170.00
1918,24432,19180.00
1919,24456,19190.00
1920,24484,19200.00
1921,24524,19210.00
1922,24564,19220.00
1923,24600,19230.00
1924,24636,19240.00
1925,24664,19250.00
1926,24688,19260.00
1927,24724,19270.00
1928,24752,19280.00
1929,24784,19290.00
1930,24784,19300.00
1931,24652,19310.00
1932,24444,19320.00
1933,24312,19330.00
1934,24284,19340.00
1935,24304,19350.00
1936,24328,19360.00
1937,24352,19370.00
1938,24356,19380.00
1939,24344,19390.00
1940,24336,19400.00
1941,24348,19410.00
1942,24388,19420.00
1943,24428,19430.00
1944,24468,19440.00
1945,24512,19450.00
1946,24544,19460.00
1947,24568,19470.00
1948,24588,19480.00
1949,24612,19490.00
1950,24640,19500.00
1951,24668,19510.00
1952,24700,19520.00
1953,24724,19530.00
1954,24624,19540.00
1955,24404,19550.00
1956,24224,19560.00
1957,24168,19570.00
1958,24180,19580.00
1959,24200,19590.00
1960,24224,19600.00
1961,24236,19610.00
1962,24220,19620.00
1963,24200,19630.00
1964,24200,19640.00
1965,24232,19650.00
1966,24272,19660.00
1967,24316,19670.00
1968,24364,19680.00
1969,24404,19690.00
1970,24436,19700.00
1971,24468,19710.00
1972,24500,19720.00
1973,24536,19730.00
1974,24564,19740.00
1975,24600,19750.00
1976,24636,19760.00
1977,24656,19770.00
1978,24532,19780.00
1979,24292,19790.00
1980,24108,19800.00
1981,24048,19810.00
1982,24056,19820.00
1983,24080,19830.00
1984,24108,19840.00
1985,24120,19850.00
1986,24112,19860.00
1987,24100,19870.00
1988,24112,19880.00
1989,24156,19890.00
1990,24204,19900.00
1991,24260,19910.00
1992,24304,19920.00
1993,24340,19930.00
1994,24364,19940.00
1995,24388,19950.00
1996,24420,19960.00
1997,24448,19970.00
1998,24476,19980.00
1999,24508,19990.00
2000,24552,20000.00
2001,24556,20010.00
2002,24404,20020.00
2003,24176,20030.00
2004,24024,20040.00
2005,23992,20050.00
2006,24020,20060.00
2007,24052,20070.00
2008,24080,20080.00
2009,24080,20090.00
2010,24060,20100.00
2011,24052,20110.00
2012,24068,20120.00
2013,24112,20130.00
2014,24168,20140.00
2015,24220,20150.00
2016,24268,20160.00
2017,24308,20170.00
2018,24340,20180.00
2019,24372,20190.00
2020,24404,20200.00
2021,24428,20210.00
2022,24468,20220.00
2023,24500,20230.00
2024,24444,20240.00
2025,24216,20250.00
2026,23988,20260.00
2027,23892,20270.00
2028,23896,20280.00
2029,23928,20290.00
2030,23964,20300.00
2031,23992,20310.00
2032,23992,20320.00
2033,23980,20330.00
2034,23992,20340.00
2035,24024,20350.00
2036,24076,20360.00
2037,24136,20370.00
2038,24184,20380.00
2039,24220,20390.00
2040,24244,20400.00
2041,24276,20410.00
2042,24300,20420.00
2043,24332,20430.00
2044,24356,20440.00
2045,24404,20450.00
2046,24416,20460.00
2047,24268,20470.00
2048,24008,20480.00
2049,23832,20490.00
2050,23800,20500.00
2051,23824,20510.00
2052,23852,20520.00
2053,23880,20530.00
2054,23892,20540.00
2055,23880,20550.00
2056,23876,20560.00
2057,23900,20570.00
2058,23944,20580.00
2059,24000,20590.00
2060,24056,20600.00
2061,24104,20610.00
2062,24144,20620.00
2063,24180,20630.00
2064,24212,20640.00
2065,24248,20650.00
2066,24284,20660.00
2067,24320,20670.00
2068,24360,20680.00
2069,24384,20690.00
2070,24268,20700.00
2071,24000,20710.00
2072,23796,20720.00
2073,23732,20730.00
2074,23756,20740.00
2075,23788,20750.00
2076,23832,20760.00
2077,23856,20770.00
2078,23848,20780.00
2079,23840,20790.00
2080,23860,20800.00
2081,23900,20810.00
2082,23956,20820.00
2083,24012,20830.00
2084,24072,20840.00
2085,24108,20850.00
2086,24132,20860.00
2087,24168,20870.00
2088,24200,20880.00
2089,24232,20890.00
2090,24272,20900.00
2091,24320,20910.00
2092,24316,20920.00
2093,24140,20930.00
2094,23884,20940.00
2095,23744,20950.00
2096,23736,20960.00
2097,23780,20970.00
2098,23828,20980.00
2099,23868,20990.00
2100,23872,21000.00
2101,23852,21010.00
2102,23856,21020.00
2103,23888,21030.00
2104,23944,21040.00
2105,24004,21050.00
2106,24068,21060.00
2107,24116,21070.00
2108,24156,21080.00
2109,24192,21090.00
2110,24224,21100.00
2111,24260,21110.00
2112,24300,21120.00
2113,24340,21130.00
2114,24376,21140.00
2115,24408,21150.00
2116,24292,21160.00
2117,24028,21170.00
2118,23792,21180.00
2119,23712,21190.00
2120,23736,21200.00
2121,23768,21210.00
2122,23812,21220.00
2123,23840,21230.00
2124,23844,21240.00
2125,23836,21250.00
2126,23852,21260.00
2127,23904,21270.00
2128,23964,21280.00
2129,24024,21290.00
2130,24072,21300.00
2131,24116,21310.00
2132,24152,21320.00
2133,24180,21330.00
2134,24216,21340.00
2135,24256,21350.00
2136,24300,21360.00
2137,24340,21370.00
2138,24388,21380.00
2139,24420,21390.00
2140,24296,21400.00
2141,24020,21410.00
2142,23796,21420.00
2143,23728,21430.00
2144,23744,21440.00
2145,23772,21450.00
2146,23808,21460.00
2147,23828,21470.00
2148,23824,21480.00
2149,23816,21490.00
2150,23836,21500.00
2151,23888,21510.00
2152,23948,21520.00
2153,24012,21530.00
2154,24068,21540.00
2155,24116,21550.00
2156,24156,21560.00
2157,24188,21570.00
2158,24220,21580.00
2159,24260,21590.00
2160,24296,21600.00
2161,24332,21610.00
2162,24368,21620.00
2163,24404,21630.00
2164,24324,21640.00
2165,24076,21650.00
2166,23832,21660.00
2167,23736,21670.00
2168,23752,21680.00
2169,23800,21690.00
2170,23852,21700.00
2171,23884,21710.00
2172,23876,21720.00
2173,23856,21730.00
2174,23864,21740.00
2175,23904,21750.00
2176,23964,21760.00
2177,24024,21770.00
2178,24072,21780.00
2179,24116,21790.00
2180,24152,21800.00
2181,24184,21810.00
2182,24220,21820.00
2183,24256,21830.00
2184,24292,21840.00
2185,24332,21850.00
2186,24360,21860.00
2187,24248,21870.00
2188,23976,21880.00
2189,23736,21890.00
2190,23660,21900.00
2191,23684,21910.00
2192,23724,21920.00
2193,23760,21930.00
2194,23788,21940.00
2195,23780,21950.00
2196,23768,21960.00
2197,23788,21970.00
2198,23840,21980.00
2199,23904,21990.00
2200,23968,22000.00
2201,24028,22010.00
2202,24076,22020.00
2203,24112,22030.00
2204,24144,22040.00
2205,24184,22050.00
2206,24224,22060.00
2207,24256,22070.00
2208,24288,22080.00
2209,24328,22090.00
2210,24316,22100.00
2211,24092,22110.00
2212,23792,22120.00
2213,23620,22130.00
2214,23604,22140.00
2215,23648,22150.00
2216,23692,22160.00
2217,23740,22170.00
2218,23756,22180.00
2219,23744,22190.00
2220,23740,22200.00
2221,23776,22210.00
2222,23824,22220.00
2223,23892,22230.00
2224,23948,22240.00
2225,24000,22250.00
2226,24044,22260.00
2227,24080,22270.00
2228,24116,22280.00
2229,24152,22290.00
2230,24192,22300.00
2231,24236,22310.00
2232,24280,22320.00
2233,24332,22330.00
2234,24324,22340.00
2235,24116,22350.00
2236,23824,22360.00
2237,23636,22370.00
2238,23600,22380.00
2239,23640,22390.00
2240,23688,22400.00
2241,23736,22410.00
2242,23744,22420.00
2243,23720,22430.00
2244,23708,22440.00
2245,23732,22450.00
2246,23788,22460.00
2247,23860,22470.00
2248,23932,22480.00
2249,23988,22490.00
2250,24032,22500.00
2251,24072,22510.00
2252,24104,22520.00
2253,24140,22530.00
2254,24168,22540.00
2255,24204,22550.00
2256,24244,22560.00
2257,24156,22570.00
2258,23884,22580.00
2259,23632,22590.00
2260,23540,22600.00
2261,23572,22610.00
2262,23636,22620.00
2263,23700,22630.00
2264,23748,22640.00
2265,23732,22650.00
2266,23708,22660.00
2267,23720,22670.00
2268,23764,22680.00
2269,23824,22690.00
2270,23892,22700.00
2271,23952,22710.00
2272,24000,22720.00
2273,24044,22730.00
2274,24080,22740.00
2275,24120,22750.00
2276,24156,22760.00
2277,24196,22770.00
2278,24240,22780.00
2279,24156,22790.00
2280,23876,22800.00
2281,23604,22810.00
2282,23496,22820.00
2283,23512,22830.00
2284,23556,22840.00
2285,23604,22850.00
2286,23636,22860.00
2287,23636,22870.00
2288,23616,22880.00
2289,23624,22890.00
2290,23668,22900.00
2291,23736,22910.00
2292,23808,22920.00
2293,23876,22930.00
2294,23936,22940.00
2295,23984,22950.00
2296,24016,22960.00
2297,24056,22970.00
2298,24092,22980.00
2299,24132,22990.00
2300,24172,23000.00
2301,24176,23010.00
2302,23980,23020.00
2303,23664,23030.00
2304,23456,23040.00
2305,23420,23050.00
2306,23468,23060.00
2307,23524,23070.00
2308,23576,23080.00
2309,23600,23090.00
2310,23592,23100.00
2311,23580,23110.00
2312,23608,23120.00
2313,23668,23130.00
2314,23736,23140.00
2315,23800,23150.00
2316,23852,23160.00
2317,23900,23170.00
2318,23932,23180.00
2319,23964,23190.00
2320,24000,23200.00
2321,24044,23210.00
2322,24080,23220.00
2323,24128,23230.00
2324,24084,23240.00
2325,23820,23250.00
2326,23536,23260.00
2327,23400,23270.00
2328,23416,23280.00
2329,23472,23290.00
2330,23528,23300.00
2331,23568,23310.00
2332,23560,23320.00
2333,23532,23330.00
2334,23532,23340.00
2335,23568,23350.00
2336,23636,23360.00
2337,23716,23370.00
2338,23780,23380.00
2339,23836,23390.00
2340,23880,23400.00
2341,23916,23410.00
2342,23948,23420.00
2343,23988,23430.00
2344,24032,23440.00
2345,23968,23450.00
2346,23700,23460.00
2347,23424,23470.00
2348,23320,23480.00
2349,23352,23490.00
2350,23412,23500.00
2351,23480,23510.00
2352,23528,23520.00
2353,23524,23530.00
2354,23508,23540.00
2355,23520,23550.00
2356,23572,23560.00
2357,23644,23570.00
2358,23720,23580.00
2359,23784,23590.00
2360,23840,23600.00
2361,23880,23610.00
2362,23912,23620.00
2363,23940,23630.00
2364,23976,23640.00
2365,24016,23650.00
2366,24056,23660.00
2367,23952,23670.00
2368,23648,23680.00
2369,23368,23690.00
2370,23272,23700.00
2371,23308,23710.00
2372,23364,23720.00
2373,23416,23730.00
2374,23460,23740.00
2375,23460,23750.00
2376,23460,23760.00
2377,23480,23770.00
2378,23528,23780.00
2379,23596,23790.00
2380,23668,23800.00
2381,23732,23810.00
2382,23780,23820.00
2383,23824,23830.00
2384,23868,23840.00
2385,23912,23850.00
2386,23944,23860.00
2387,23992,23870.00
2388,24048,23880.00
2389,24048,23890.00
2390,23824,23900.00
2391,23500,23910.00
2392,23308,23920.00
2393,23288,23930.00
2394,23340,23940.00
2395,23388,23950.00
2396,23440,23960.00
2397,23456,23970.00
2398,23448,23980.00
2399,23444,23990.00
2400,23480,24000.00
2401,23548,24010.00
2402,23624,24020.00
2403,23700,24030.00
2404,23764,24040.00
2405,23812,24050.00
2406,23848,24060.00
2407,23888,24070.00
2408,23928,24080.00
2409,23964,24090.00
2410,24004,24100.00
2411,24016,24110.00
2412,23820,24120.00
2413,23504,24130.00
2414,23304,24140.00
2415,23296,24150.00
2416,23368,24160.00
2417,23440,24170.00
2418,23508,24180.00
2419,23528,24190.00
2420,23508,24200.00
2421,23496,24210.00
2422,23528,24220.00
2423,23596,24230.00
2424,23680,24240.00
2425,23748,24250.00
2426,23804,24260.00
2427,23848,24270.00
2428,23884,24280.00
2429,23916,24290.00
2430,23952,24300.00
2431,23996,24310.00
2432,24012,24320.00
2433,23820,24330.00
2434,23504,24340.00
2435,23304,24350.00
2436,23284,24360.00
2437,23348,24370.00
2438,23420,24380.00
2439,23488,24390.00
2440,23508,24400.00
2441,23492,24410.00
2442,23480,24420.00
2443,23512,24430.00
2444,23580,24440.00
2445,23652,24450.00
2446,23728,24460.00
2447,23792,24470.00
2448,23844,24480.00
2449,23888,24490.00
2450,23928,24500.00
2451,23972,24510.00
2452,24012,24520.00
2453,24060,24530.00
2454,24076,24540.00
2455,23880,24550.00
2456,23540,24560.00
2457,23300,24570.00
2458,23260,24580.00
2459,23320,24590.00
2460,23376,24600.00
2461,23428,24610.00
2462,23456,24620.00
2463,23456,24630.00
2464,23452,24640.00
2465,23484,24650.00
2466,23548,24660.00
2467,23628,24670.00
2468,23700,24680.00
2469,23768,24690.00
2470,23816,24700.00
2471,23864,24710.00
2472,23900,24720.00
2473,23936,24730.00
2474,23972,24740.00
2475,24020,24750.00
2476,24068,24760.00
2477,24040,24770.00
2478,23776,24780.00
2479,23448,24790.00
2480,23268,24800.00
2481,23268,24810.00
2482,23336,24820.00
2483,23404,24830.00
2484,23460,24840.00
2485,23472,24850.00
2486,23460,24860.00
2487,23456,24870.00
2488,23492,24880.00
2489,23556,24890.00
2490,23632,24900.00
2491,23708,24910.00
2492,23768,24920.00
2493,23820,24930.00
2494,23864,24940.00
2495,23904,24950.00
2496,23948,24960.00
2497,23992,24970.00
2498,24040,24980.00
2499,24092,24990.00
2500,24076,25000.00
2501,23828,25010.00
2502,23508,25020.00
2503,23324,25030.00
2504,23308,25040.00
2505,23384,25050.00
2506,23464,25060.00
2507,23524,25070.00
2508,23528,25080.00
2509,23496,25090.00
2510,23484,25100.00
2511,23520,25110.00
2512,23588,25120.00
2513,23672,25130.00
2514,23756,25140.00
2515,23820,25150.00
2516,23868,25160.00
2517,23908,25170.00
2518,23940,25180.00
2519,23968,25190.00
2520,24012,25200.00
2521,23992,25210.00
2522,23744,25220.00
2523,23432,25230.00
2524,23260,25240.00
2525,23268,25250.00
2526,23344,25260.00
2527,23428,25270.00
2528,23496,25280.00
2529,23512,25290.00
2530,23488,25300.00
2531,23484,25310.00
2532,23524,25320.00
2533,23588,25330.00
2534,23664,25340.00
2535,23728,25350.00
2536,23788,25360.00
2537,23840,25370.00
2538,23876,25380.00
2539,23916,25390.00
2540,23952,25400.00
2541,24000,25410.00
2542,24000,25420.00
2543,23780,25430.00
2544,23440,25440.00
2545,23212,25450.00
2546,23188,25460.00
2547,23248,25470.00
2548,23312,25480.00
2549,23368,25490.00
2550,23384,25500.00
2551,23372,25510.00
2552,23364,25520.00
2553,23392,25530.00
2554,23456,25540.00
2555,23540,25550.00
2556,23616,25560.00
2557,23680,25570.00
2558,23736,25580.00
2559,23776,25590.00
2560,23804,25600.00
2561,23836,25610.00
2562,23884,25620.00
2563,23844,25630.00
2564,23568,25640.00
2565,23232,25650.00
2566,23068,25660.00
2567,23080,25670.00
2568,23152,25680.00
2569,23224,25690.00
2570,23288,25700.00
2571,23304,25710.00
2572,23284,25720.00
2573,23276,25730.00
2574,23312,25740.00
2575,23384,25750.00
2576,23464,25760.00
2577,23540,25770.00
2578,23600,25780.00
2579,23644,25790.00
2580,23668,25800.00
2581,23700,25810.00
2582,23740,25820.00
2583,23740,25830.00
2584,23528,25840.00
2585,23212,25850.00
2586,23040,25860.00
2587,23040,25870.00
2588,23116,25880.00
2589,23196,25890.00
2590,23280,25900.00
2591,23308,25910.00
2592,23292,25920.00
2593,23288,25930.00
2594,23320,25940.00
2595,23388,25950.00
2596,23472,25960.00
2597,23556,25970.00
2598,23624,25980.00
2599,23676,25990.00
2600,23732,26000.00
2601,23780,26010.00
2602,23708,26020.00
2603,23428,26030.00
2604,23152,26040.00
2605,23052,26050.00
2606,23088,26060.00
2607,23168,26070.00
2608,23244,26080.00
2609,23288,26090.00
2610,23280,26100.00
2611,23256,26110.00
2612,23268,26120.00
2613,23316,26130.00
2614,23388,26140.00
2615,23468,26150.00
2616,23532,26160.00
2617,23588,26170.00
2618,23636,26180.00
2619,23680,26190.00
2620,23720,26200.00
2621,23720,26210.00
2622,23488,26220.00
2623,23140,26230.00
2624,22928,26240.00
2625,22904,26250.00
2626,22952,26260.00
2627,23004,26270.00
2628,23060,26280.00
2629,23080,26290.00
2630,23068,26300.00
2631,23064,26310.00
2632,23100,26320.00
2633,23160,26330.00
2634,23232,26340.00
2635,23296,26350.00
2636,23348,26360.00
2637,23392,26370.00
2638,23428,26380.00
2639,23472,26390.00
2640,23520,26400.00
2641,23580,26410.00
2642,23640,26420.00
2643,23700,26430.00
2644,23768,26440.00
2645,23756,26450.00
2646,23468,26460.00
2647,23100,26470.00
2648,22908,26480.00
2649,22924,26490.00
2650,23000,26500.00
2651,23068,26510.00
2652,23132,26520.00
2653,23156,26530.00
2654,23156,26540.00
2655,23160,26550.00
2656,23212,26560.00
2657,23292,26570.00
2658,23376,26580.00
2659,23460,26590.00
2660,23536,26600.00
2661,23600,26610.00
2662,23648,26620.00
2663,23700,26630.00
2664,23752,26640.00
2665,23800,26650.00
2666,23856,26660.00
2667,23916,26670.00
2668,23868,26680.00
2669,23572,26690.00
2670,23244,26700.00
2671,23076,26710.00
2672,23084,26720.00
2673,23152,26730.00
2674,23240,26740.00
2675,23304,26750.00
2676,23312,26760.00
2677,23288,26770.00
2678,23292,26780.00
2679,23340,26790.00
2680,23424,26800.00
2681,23512,26810.00
2682,23596,26820.00
2683,23656,26830.00
2684,23704,26840.00
2685,23736,26850.00
2686,23768,26860.00
2687,23804,26870.00
2688,23852,26880.00
2689,23800,26890.00
2690,23508,26900.00
2691,23180,26910.00
2692,23032,26920.00
2693,23056,26930.00
2694,23140,26940.00
2695,23240,26950.00
2696,23312,26960.00
2697,23320,26970.00
2698,23300,26980.00
2699,23304,26990.00
2700,23348,27000.00
2701,23416,27010.00
2702,23504,27020.00
2703,23592,27030.00
2704,23652,27040.00
2705,23712,27050.00
2706,23764,27060.00
2707,23808,27070.00
2708,23848,27080.00
2709,23880,27090.00
2710,23704,27100.00
2711,23372,27110.00
2712,23132,27120.00
2713,23088,27130.00
2714,23180,27140.00
2715,23292,27150.00
2716,23400,27160.00
2717,23472,27170.00
2718,23492,27180.00
2719,23472,27190.00
2720,23468,27200.00
2721,23508,27210.00
2722,23572,27220.00
2723,23636,27230.00
2724,23696,27240.00
2725,23752,27250.00
2726,23796,27260.00
2727,23840,27270.00
2728,23864,27280.00
2729,23696,27290.00
2730,23376,27300.00
2731,23140,27310.00
2732,23116,27320.00
2733,23216,27330.00
2734,23328,27340.00
2735,23436,27350.00
2736,23496,27360.00
2737,23496,27370.00
2738,23476,27380.00
2739,23496,27390.00
2740,23552,27400.00
2741,23616,27410.00
2742,23684,27420.00
2743,23752,27430.00
2744,23800,27440.00
2745,23844,27450.00
2746,23836,27460.00
2747,23588,27470.00
2748,23272,27480.00
2749,23088,27490.00
2750,23076,27500.00
2751,23168,27510.00
2752,23276,27520.00
2753,23352,27530.00
2754,23372,27540.00
2755,23336,27550.00
2756,23312,27560.00
2757,23344,27570.00
2758,23416,27580.00
2759,23492,27590.00
2760,23564,27600.00
2761,23624,27610.00
2762,23672,27620.00
2763,23572,27630.00
2764,23248,27640.00
2765,22972,27650.00
2766,22928,27660.00
2767,23020,27670.00
2768,23136,27680.00
2769,23256,27690.00
2770,23316,27700.00
2771,23304,27710.00
2772,23268,27720.00
2773,23276,27730.00
2774,23320,27740.00
2775,23384,27750.00
2776,23448,27760.00
2777,23508,27770.00
2778,23564,27780.00
2779,23624,27790.00
2780,23672,27800.00
2781,23552,27810.00
2782,23236,27820.00
2783,22972,27830.00
2784,22924,27840.00
2785,23012,27850.00
2786,23136,27860.00
2787,23248,27870.00
2788,23308,27880.00
2789,23304,27890.00
2790,23292,27900.00
2791,23316,27910.00
2792,23380,27920.00
2793,23464,27930.00
2794,23552,27940.00
2795,23636,27950.00
2796,23716,27960.00
2797,23784,27970.00
2798,23844,27980.00
2799,23892,27990.00
2800,23924,28000.00
2801,23772,28010.00
2802,23468,28020.00
2803,23212,28030.00
2804,23128,28040.00
2805,23196,28050.00
2806,23304,28060.00
2807,23408,28070.00
2808,23456,28080.00
2809,23440,28090.00
2810,23416,28100.00
2811,23428,28110.00
2812,23484,28120.00
2813,23560,28130.00
2814,23636,28140.00
2815,23712,28150.00
2816,23780,28160.00
2817,23836,28170.00
2818,23880,28180.00
2819,23924,28190.00
2820,23952,28200.00
2821,23780,28210.00
2822,23476,28220.00
2823,23248,28230.00
2824,23184,28240.00
2825,23236,28250.00
2826,23336,28260.00
2827,23432,28270.00
2828,23464,28280.00
2829,23436,28290.00
2830,23416,28300.00
2831,23432,28310.00
2832,23484,28320.00
2833,23552,28330.00
2834,23620,28340.00
2835,23688,28350.00
2836,23756,28360.00
2837,23800,28370.00
2838,23840,28380.00
2839,23864,28390.00
2840,23724,28400.00
2841,23408,28410.00
2842,23136,28420.00
2843,23028,28430.00
2844,23064,28440.00
2845,23176,28450.00
2846,23296,28460.00
2847,23352,28470.00
2848,23328,28480.00
2849,23272,28490.00
2850,23248,28500.00
2851,23244,28510.00
2852,23280,28520.00
2853,23344,28530.00
2854,23408,28540.00
2855,23480,28550.00
2856,23548,28560.00
2857,23612,28570.00
2858,23600,28580.00
2859,23368,28590.00
2860,23076,28600.00
2861,22936,28610.00
2862,22988,28620.00
2863,23136,28630.00
2864,23296,28640.00
2865,23412,28650.00
2866,23440,28660.00
2867,23412,28670.00
2868,23396,28680.00
2869,23420,28690.00
2870,23488,28700.00
2871,23568,28710.00
2872,23640,28720.00
2873,23720,28730.00
2874,23772,28740.00
2875,23636,28750.00
2876,23368,28760.00
2877,23180,28770.00
2878,23184,28780.00
2879,23300,28790.00
2880,23464,28800.00
2881,23600,28810.00
2882,23648,28820.00
2883,23612,28830.00
2884,23576,28840.00
2885,23576,28850.00
2886,23616,28860.00
2887,23672,28870.00
2888,23740,28880.00
2889,23808,28890.00
2890,23808,28900.00
2891,23580,28910.00
2892,23276,28920.00
2893,23124,28930.00
2894,23164,28940.00
2895,23300,28950.00
2896,23452,28960.00
2897,23560,28970.00
2898,23572,28980.00
2899,23532,28990.00
2900,23504,29000.00
2901,23520,29010.00
2902,23564,29020.00
2903,23632,29030.00
2904,23712,29040.00
2905,23788,29050.00
2906,23700,29060.00
2907,23424,29070.00
2908,23196,29080.00
2909,23164,29090.00
2910,23252,29100.00
2911,23372,29110.00
2912,23472,29120.00
2913,23500,29130.00
2914,23448,29140.00
2915,23392,29150.00
2916,23388,29160.00
2917,23432,29170.00
2918,23488,29180.00
2919,23552,29190.00
2920,23600,29200.00
2921,23436,29210.00
2922,23140,29220.00
2923,22996,29230.00
2924,23048,29240.00
2925,23172,29250.00
2926,23308,29260.00
2927,23392,29270.00
2928,23396,29280.00
2929,23352,29290.00
2930,23344,29300.00
2931,23380,29310.00
2932,23448,29320.00
2933,23524,29330.00
2934,23576,29340.00
2935,23452,29350.00
2936,23196,29360.00
2937,23036,29370.00
2938,23040,29380.00
2939,23136,29390.00
2940,23256,29400.00
2941,23324,29410.00
2942,23324,29420.00
2943,23308,29430.00
2944,23324,29440.00
2945,23376,29450.00
2946,23440,29460.00
2947,23512,29470.00
2948,23520,29480.00
2949,23360,29490.00
2950,23180,29500.00
2951,23124,29510.00
2952,23180,29520.00
2953,23276,29530.00
2954,23368,29540.00
2955,23404,29550.00
2956,23408,29560.00
2957,23420,29570.00
2958,23460,29580.00
2959,23520,29590.00
2960,23588,29600.00
2961,23644,29610.00
2962,23580,29620.00
2963,23424,29630.00
2964,23324,29640.00
2965,23320,29650.00
2966,23364,29660.00
2967,23428,29670.00
2968,23480,29680.00
2969,23504,29690.00
2970,23516,29700.00
2971,23544,29710.00
2972,23592,29720.00
2973,23648,29730.00
2974,23700,29740.00
2975,23756,29750.00
2976,23780,29760.00
2977,23668,29770.00
2978,23520,29780.00
2979,23464,29790.00
2980,23480,29800.00
2981,23504,29810.00
2982,23552,29820.00
2983,23588,29830.00
2984,23600,29840.00
2985,23612,29850.00
2986,23644,29860.00
2987,23692,29870.00
2988,23740,29880.00
2989,23792,29890.00
2990,23840,29900.00
2991,23884,29910.00
2992,23920,29920.00
2993,23956,29930.00
2994,23992,29940.00
2995,24036,29950.00
2996,24076,29960.00
2997,24116,29970.00
2998,24172,29980.00
2999,24140,29990.00
3000,23996,30000.00
3001,23884,30010.00
3002,23872,30020.00
3003,23892,30030.00
3004,23904,30040.00
3005,23924,30050.00
3006,23936,30060.00
3007,23940,30070.00
3008,23944,30080.00
3009,23972,30090.00
3010,24020,30100.00
3011,24060,30110.00
3012,24092,30120.00
3013,24128,30130.00
3014,24168,30140.00
3015,24200,30150.00
3016,24232,30160.00
3017,24268,30170.00
3018,24304,30180.00
3019,24340,30190.00
3020,24316,30200.00
3021,24212,30210.00
3022,24132,30220.00
3023,24120,30230.00
3024,24140,30240.00
3025,24160,30250.00
3026,24188,30260.00
3027,24200,30270.00
3028,24196,30280.00
3029,24212,30290.00
3030,24240,30300.00
3031,24276,30310.00
3032,24316,30320.00
3033,24352,30330.00
3034,24384,30340.00
3035,24408,30350.00
3036,24436,30360.00
3037,24464,30370.00
3038,24472,30380.00
3039,24392,30390.00
3040,24316,30400.00
3041,24300,30410.00
3042,24312,30420.00
3043,24328,30430.00
3044,24340,30440.00
3045,24340,30450.00
3046,24332,30460.00
3047,24336,30470.00
3048,24344,30480.00
3049,24372,30490.00
3050,24396,30500.00
3051,24420,30510.00
3052,24448,30520.00
3053,24464,30530.00
3054,24484,30540.00
3055,24508,30550.00
3056,24532,30560.00
3057,24516,30570.00
3058,24424,30580.00
3059,24348,30590.00
3060,24344,30600.00
3061,24368,30610.00
3062,24380,30620.00
3063,24408,30630.00
3064,24424,30640.00
3065,24444,30650.00
3066,24460,30660.00
3067,24492,30670.00
3068,24536,30680.00
3069,24572,30690.00
3070,24608,30700.00
3071,24640,30710.00
3072,24668,30720.00
3073,24688,30730.00
3074,24716,30740.00
3075,24744,30750.00
3076,24752,30760.00
3077,24668,30770.00
3078,24580,30780.00
3079,24556,30790.00
3080,24564,30800.00
3081,24564,30810.00
3082,24572,30820.00
3083,24588,30830.00
3084,24584,30840.00
3085,24572,30850.00
3086,24576,30860.00
3087,24588,30870.00
3088,24620,30880.00
3089,24652,30890.00
3090,24664,30900.00
3091,24676,30910.00
3092,24692,30920.00
3093,24712,30930.00
3094,24736,30940.00
3095,24768,30950.00
3096,24800,30960.00
3097,24828,30970.00
3098,24816,30980.00
3099,24716,30990.00
3100,24624,31000.00
3101,24600,31010.00
3102,24604,31020.00
3103,24604,31030.00
3104,24608,31040.00
3105,24612,31050.00
3106,24608,31060.00
3107,24612,31070.00
3108,24632,31080.00
3109,24660,31090.00
3110,24696,31100.00
3111,24720,31110.00
3112,24740,31120.00
3113,24772,31130.00
3114,24808,31140.00
3115,24836,31150.00
3116,24852,31160.00
3117,24876,31170.00
3118,24908,31180.00
3119,24932,31190.00
3120,24944,31200.00
3121,24908,31210.00
3122,24812,31220.00
3123,24764,31230.00
3124,24772,31240.00
3125,24780,31250.00
3126,24784,31260.00
3127,24796,31270.00
3128,24800,31280.00
3129,24792,31290.00
3130,24788,31300.00
3131,24792,31310.00
3132,24816,31320.00
3133,24836,31330.00
3134,24860,31340.00
3135,24884,31350.00
3136,24904,31360.00
3137,24928,31370.00
3138,24956,31380.00
3139,24984,31390.00
3140,25012,31400.00
3141,25024,31410.00
3142,24960,31420.00
3143,24892,31430.00
3144,24876,31440.00
3145,24900,31450.00
3146,24908,31460.00
3147,24916,31470.00
3148,24916,31480.00
3149,24920,31490.00
3150,24916,31500.00
3151,24932,31510.00
3152,24960,31520.00
3153,24984,31530.00
3154,25008,31540.00
3155,25032,31550.00
3156,25052,31560.00
3157,25072,31570.00
3158,25088,31580.00
3159,25104,31590.00
3160,25124,31600.00
3161,25132,31610.00
3162,25072,31620.00
3163,24996,31630.00
3164,24964,31640.00
3165,24976,31650.00
3166,24988,31660.00
3167,25004,31670.00
3168,25020,31680.00
3169,25020,31690.00
3170,25016,31700.00
3171,25020,31710.00
3172,25036,31720.00
3173,25052,31730.00
3174,25072,31740.00
3175,25096,31750.00
3176,25124,31760.00
3177,25140,31770.00
3178,25152,31780.00
3179,25168,31790.00
3180,25188,31800.00
3181,25176,31810.00
3182,25092,31820.00
3183,25028,31830.00
3184,25016,31840.00
3185,25020,31850.00
3186,25020,31860.00
3187,25020,31870.00
3188,25032,31880.00
3189,25024,31890.00
3190,25024,31900.00
3191,25032,31910.00
3192,25044,31920.00
3193,25064,31930.00
3194,25080,31940.00
3195,25096,31950.00
3196,25108,31960.00
3197,25124,31970.00
3198,25144,31980.00
3199,25164,31990.00
3200,25180,32000.00
3201,25200,32010.00
3202,25156,32020.00
3203,25068,32030.00
3204,25024,32040.00
3205,25032,32050.00
3206,25036,32060.00
3207,25032,32070.00
3208,25028,32080.00
3209,25024,32090.00
3210,25024,32100.00
3211,25032,32110.00
3212,25044,32120.00
3213,25064,32130.00
3214,25096,32140.00
3215,25120,32150.00
3216,25140,32160.00
3217,25164,32170.00
3218,25184,32180.00
3219,25208,32190.00
3220,25224,32200.00
3221,25248,32210.00
3222,25256,32220.00
3223,25192,32230.00
3224,25108,32240.00
3225,25076,32250.00
3226,25088,32260.00
3227,25096,32270.00
3228,25096,32280.00
3229,25108,32290.00
3230,25112,32300.00
3231,25112,32310.00
3232,25112,32320.00
3233,25136,32330.00
3234,25164,32340.00
3235,25184,32350.00
3236,25208,32360.00
3237,25232,32370.00
3238,25244,32380.00
3239,25256,32390.00
3240,25276,32400.00
3241,25292,32410.00
3242,25312,32420.00
3243,25324,32430.00
3244,25296,32440.00
3245,25208,32450.00
3246,25148,32460.00
3247,25148,32470.00
3248,25152,32480.00
3249,25156,32490.00
3250,25156,32500.00
3251,25156,32510.00
3252,25140,32520.00
3253,25124,32530.00
3254,25128,32540.00
3255,25140,32550.00
3256,25160,32560.00
3257,25184,32570.00
3258,25192,32580.00
3259,25200,32590.00
3260,25208,32600.00
3261,25216,32610.00
3262,25232,32620.00
3263,25252,32630.00
3264,25272,32640.00
3265,25208,32650.00
3266,25100,32660.00
3267,25040,32670.00
3268,25032,32680.00
3269,25044,32690.00
3270,25048,32700.00
3271,25040,32710.00
3272,25032,32720.00
3273,25016,32730.00
3274,25004,32740.00
3275,25020,32750.00
3276,25048,32760.00
3277,25064,32770.00
3278,25076,32780.00
3279,25088,32790.00
3280,25104,32800.00
3281,25120,32810.00
3282,25136,32820.00
3283,25156,32830.00
3284,25176,32840.00
3285,25148,32850.00
3286,25024,32860.00
3287,24932,32870.00
3288,24900,32880.00
3289,24908,32890.00
3290,24920,32900.00
3291,24932,32910.00
3292,24936,32920.00
3293,24928,32930.00
3294,24924,32940.00
3295,24920,32950.00
3296,24940,32960.00
3297,24964,32970.00
3298,24988,32980.00
3299,25008,32990.00
3300,25024,33000.00
3301,25032,33010.00
3302,25040,33020.00
3303,25060,33030.00
3304,25060,33040.00
3305,24952,33050.00
3306,24824,33060.00
3307,24760,33070.00
3308,24760,33080.00
3309,24768,33090.00
3310,24780,33100.00
3311,24788,33110.00
3312,24788,33120.00
3313,24776,33130.00
3314,24780,33140.00
3315,24792,33150.00
3316,24816,33160.00
3317,24836,33170.00
3318,24864,33180.00
3319,24892,33190.00
3320,24916,33200.00
3321,24944,33210.00
3322,24968,33220.00
3323,24992,33230.00
3324,24928,33240.00
3325,24796,33250.00
3326,24708,33260.00
3327,24696,33270.00
3328,24724,33280.00
3329,24764,33290.00
3330,24788,33300.00
3331,24792,33310.00
3332,24784,33320.00
3333,24780,33330.00
3334,24796,33340.00
3335,24828,33350.00
3336,24864,33360.00
3337,24900,33370.00
3338,24936,33380.00
3339,24976,33390.00
3340,25008,33400.00
3341,25044,33410.00
3342,25028,33420.00
3343,24908,33430.00
3344,24780,33440.00
3345,24728,33450.00
3346,24736,33460.00
3347,24752,33470.00
3348,24780,33480.00
3349,24800,33490.00
3350,24788,33500.00
3351,24768,33510.00
3352,24776,33520.00
3353,24796,33530.00
3354,24836,33540.00
3355,24876,33550.00
3356,24920,33560.00
3357,24960,33570.00
3358,24992,33580.00
3359,25020,33590.00
3360,24940,33600.00
3361,24788,33610.00
3362,24692,33620.00
3363,24684,33630.00
3364,24708,33640.00
3365,24736,33650.00
3366,24756,33660.00
3367,24752,33670.00
3368,24740,33680.00
3369,24736,33690.00
3370,24752,33700.00
3371,24772,33710.00
3372,24808,33720.00
3373,24840,33730.00
3374,24868,33740.00
3375,24900,33750.00
3376,24888,33760.00
3377,24740,33770.00
3378,24552,33780.00
3379,24456,33790.00
3380,24460,33800.00
3381,24488,33810.00
3382,24528,33820.00
3383,24564,33830.00
3384,24576,33840.00
3385,24580,33850.00
3386,24604,33860.00
3387,24636,33870.00
3388,24680,33880.00
3389,24716,33890.00
3390,24764,33900.00
3391,24808,33910.00
3392,24832,33920.00
3393,24728,33930.00
3394,24552,33940.00
3395,24452,33950.00
3396,24444,33960.00
3397,24484,33970.00
3398,24544,33980.00
3399,24588,33990.00
3400,24588,34000.00
3401,24580,34010.00
3402,24580,34020.00
3403,24596,34030.00
3404,24624,34040.00
3405,24660,34050.00
3406,24700,34060.00
3407,24728,34070.00
3408,24648,34080.00
3409,24440,34090.00
3410,24280,34100.00
3411,24240,34110.00
3412,24272,34120.00
3413,24332,34130.00
3414,24380,34140.00
3415,24412,34150.00
3416,24408,34160.00
3417,24412,34170.00
3418,24436,34180.00
3419,24468,34190.00
3420,24512,34200.00
3421,24552,34210.00
3422,24572,34220.00
3423,24444,34230.00
3424,24212,34240.00
3425,24072,34250.00
3426,24072,34260.00
3427,24132,34270.00
3428,24196,34280.00
3429,24236,34290.00
3430,24228,34300.00
3431,24196,34310.00
3432,24180,34320.00
3433,24192,34330.00
3434,24224,34340.00
3435,24272,34350.00
3436,24324,34360.00
3437,24332,34370.00
3438,24156,34380.00
3439,23952,34390.00
3440,23876,34400.00
3441,23904,34410.00
3442,23972,34420.00
3443,24044,34430.00
3444,24080,34440.00
3445,24076,34450.00
3446,24068,34460.00
3447,24088,34470.00
3448,24128,34480.00
3449,24176,34490.00
3450,24224,34500.00
3451,24276,34510.00
3452,24288,34520.00
3453,24108,34530.00
3454,23868,34540.00
3455,23764,34550.00
3456,23784,34560.00
3457,23844,34570.00
3458,23916,34580.00
3459,23956,34590.00
3460,23948,34600.00
3461,23924,34610.00
3462,23936,34620.00
3463,23972,34630.00
3464,24024,34640.00
3465,24072,34650.00
3466,24112,34660.00
3467,24148,34670.00
3468,24052,34680.00
3469,23816,34690.00
3470,23664,34700.00
3471,23668,34710.00
3472,23740,34720.00
3473,23824,34730.00
3474,23880,34740.00
3475,23900,34750.00
3476,23888,34760.00
3477,23900,34770.00
3478,23936,34780.00
3479,23992,34790.00
3480,24044,34800.00
3481,24092,34810.00
3482,24144,34820.00
3483,24196,34830.00
3484,24220,34840.00
3485,24052,34850.00
3486,23768,34860.00
3487,23616,34870.00
3488,23632,34880.00
3489,23700,34890.00
3490,23784,34900.00
3491,23844,34910.00
3492,23852,34920.00
3493,23840,34930.00
3494,23840,34940.00
3495,23880,34950.00
3496,23940,34960.00
3497,24004,34970.00
3498,24064,34980.00
3499,24112,34990.00
3500,24152,35000.00
3501,24184,35010.00
3502,24084,35020.00
3503,23820,35030.00
3504,23632,35040.00
3505,23616,35050.00
3506,23676,35060.00
3507,23752,35070.00
3508,23824,35080.00
3509,23860,35090.00
3510,23852,35100.00
3511,23844,35110.00
3512,23880,35120.00
3513,23936,35130.00
3514,24000,35140.00
3515,24048,35150.00
3516,24088,35160.00
3517,24124,35170.00
3518,24172,35180.00
3519,24148,35190.00
3520,23916,35200.00
3521,23652,35210.00
3522,23560,35220.00
3523,23596,35230.00
3524,23668,35240.00
3525,23744,35250.00
3526,23788,35260.00
3527,23784,35270.00
3528,23780,35280.00
3529,23788,35290.00
3530,23816,35300.00
3531,23864,35310.00
3532,23920,35320.00
3533,23980,35330.00
3534,24032,35340.00
3535,24072,35350.00
3536,24092,35360.00
3537,23968,35370.00
3538,23700,35380.00
3539,23516,35390.00
3540,23524,35400.00
3541,23648,35410.00
3542,23788,35420.00
3543,23892,35430.00
3544,23936,35440.00
3545,23936,35450.00
3546,23932,35460.00
3547,23960,35470.00
3548,24000,35480.00
3549,24040,35490.00
3550,24080,35500.00
3551,24112,35510.00
3552,24128,35520.00
3553,23972,35530.00
3554,23712,35540.00
3555,23584,35550.00
3556,23624,35560.00
3557,23712,35570.00
3558,23812,35580.00
3559,23880,35590.00
3560,23904,35600.00
3561,23896,35610.00
3562,23892,35620.00
3563,23916,35630.00
3564,23960,35640.00
3565,24024,35650.00
3566,24076,35660.00
3567,24136,35670.00
3568,24184,35680.00
3569,24080,35690.00
3570,23816,35700.00
3571,23636,35710.00
3572,23628,35720.00
3573,23684,35730.00
3574,23752,35740.00
3575,23828,35750.00
3576,23868,35760.00
3577,23872,35770.00
3578,23872,35780.00
3579,23892,35790.00
3580,23928,35800.00
3581,23980,35810.00
3582,24028,35820.00
3583,24072,35830.00
3584,24124,35840.00
3585,24160,35850.00
3586,24024,35860.00
3587,23748,35870.00
3588,23576,35880.00
3589,23568,35890.00
3590,23624,35900.00
3591,23712,35910.00
3592,23788,35920.00
3593,23820,35930.00
3594,23824,35940.00
3595,23848,35950.00
3596,23896,35960.00
3597,23956,35970.00
3598,24040,35980.00
3599,24120,35990.00
3600,24200,36000.00
3601,24268,36010.00
3602,24256,36020.00
3603,24044,36030.00
3604,23776,36040.00
3605,23636,36050.00
3606,23632,36060.00
3607,23708,36070.00
3608,23808,36080.00
3609,23876,36090.00
3610,23908,36100.00
3611,23936,36110.00
3612,23968,36120.00
3613,24012,36130.00
3614,24072,36140.00
3615,24148,36150.00
3616,24228,36160.00
3617,24308,36170.00
3618,24340,36180.00
3619,24160,36190.00
3620,23900,36200.00
3621,23740,36210.00
3622,23732,36220.00
3623,23804,36230.00
3624,23908,36240.00
3625,23992,36250.00
3626,24036,36260.00
3627,24032,36270.00
3628,24036,36280.00
3629,24064,36290.00
3630,24116,36300.00
3631,24176,36310.00
3632,24244,36320.00
3633,24292,36330.00
3634,24164,36340.00
3635,23896,36350.00
3636,23700,36360.00
3637,23660,36370.00
3638,23716,36380.00
3639,23808,36390.00
3640,23896,36400.00
3641,23944,36410.00
3642,23944,36420.00
3643,23944,36430.00
3644,23964,36440.00
3645,24012,36450.00
3646,24072,36460.00
3647,24140,36470.00
3648,24156,36480.00
3649,23956,36490.00
3650,23676,36500.00
3651,23528,36510.00
3652,23532,36520.00
3653,23600,36530.00
3654,23692,36540.00
3655,23764,36550.00
3656,23784,36560.00
3657,23780,36570.00
3658,23780,36580.00
3659,23808,36590.00
3660,23868,36600.00
3661,23944,36610.00
3662,23988,36620.00
3663,23844,36630.00
3664,23544,36640.00
3665,23348,36650.00
3666,23336,36660.00
3667,23420,36670.00
3668,23532,36680.00
3669,23640,36690.00
3670,23696,36700.00
3671,23716,36710.00
3672,23724,36720.00
3673,23756,36730.00
3674,23804,36740.00
3675,23876,36750.00
3676,23960,36760.00
3677,23980,36770.00
3678,23752,36780.00
3679,23456,36790.00
3680,23332,36800.00
3681,23368,36810.00
3682,23468,36820.00
3683,23584,36830.00
3684,23668,36840.00
3685,23704,36850.00
3686,23704,36860.00
3687,23716,36870.00
3688,23752,36880.00
3689,23812,36890.00
3690,23884,36900.00
3691,23956,36910.00
3692,24012,36920.00
3693,23864,36930.00
3694,23536,36940.00
3695,23324,36950.00
3696,23308,36960.00
3697,23388,36970.00
3698,23496,36980.00
3699,23588,36990.00
3700,23636,37000.00
3701,23636,37010.00
3702,23636,37020.00
3703,23668,37030.00
3704,23720,37040.00
3705,23792,37050.00
3706,23872,37060.00
3707,23944,37070.00
3708,24016,37080.00
3709,24000,37090.00
3710,23728,37100.00
3711,23404,37110.00
3712,23264,37120.00
3713,23292,37130.00
3714,23392,37140.00
3715,23496,37150.00
3716,23576,37160.00
3717,23608,37170.00
3718,23604,37180.00
3719,23616,37190.00
3720,23652,37200.00
3721,23720,37210.00
3722,23800,37220.00
3723,23884,37230.00
3724,23960,37240.00
3725,24028,37250.00
3726,24092,37260.00
3727,24140,37270.00
3728,24056,37280.00
3729,23752,37290.00
3730,23452,37300.00
3731,23336,37310.00
3732,23368,37320.00
3733,23464,37330.00
3734,23556,37340.00
3735,23592,37350.00
3736,23580,37360.00
3737,23572,37370.00
3738,23596,37380.00
3739,23644,37390.00
3740,23700,37400.00
3741,23752,37410.00
3742,23808,37420.00
3743,23876,37430.00
3744,23936,37440.00
3745,23980,37450.00
3746,24020,37460.00
3747,24044,37470.00
3748,23900,37480.00
3749,23616,37490.00
3750,23404,37500.00
3751,23368,37510.00
3752,23428,37520.00
3753,23540,37530.00
3754,23652,37540.00
3755,23720,37550.00
3756,23752,37560.00
3757,23764,37570.00
3758,23788,37580.00
3759,23836,37590.00
3760,23908,37600.00
3761,23976,37610.00
3762,24044,37620.00
3763,24120,37630.00
3764,24184,37640.00
3765,24228,37650.00
3766,24128,37660.00
3767,23860,37670.00
3768,23632,37680.00
3769,23548,37690.00
3770,23568,37700.00
3771,23664,37710.00
3772,23760,37720.00
3773,23820,37730.00
3774,23828,37740.00
3775,23820,37750.00
3776,23828,37760.00
3777,23856,37770.00
3778,23916,37780.00
3779,23980,37790.00
3780,24048,37800.00
3781,24112,37810.00
3782,24164,37820.00
3783,24056,37830.00
3784,23784,37840.00
3785,23536,37850.00
3786,23452,37860.00
3787,23488,37870.00
3788,23584,37880.00
3789,23692,37890.00
3790,23768,37900.00
3791,23792,37910.00
3792,23800,37920.00
3793,23824,37930.00
3794,23872,37940.00
3795,23944,37950.00
3796,24016,37960.00
3797,24084,37970.00
3798,24160,37980.00
3799,24176,37990.00
3800,23968,38000.00
3801,23664,38010.00
3802,23460,38020.00
3803,23408,38030.00
3804,23460,38040.00
3805,23556,38050.00
3806,23648,38060.00
3807,23692,38070.00
3808,23692,38080.00
3809,23684,38090.00
3810,23708,38100.00
3811,23756,38110.00
3812,23820,38120.00
3813,23888,38130.00
3814,23964,38140.00
3815,24008,38150.00
3816,23856,38160.00
3817,23560,38170.00
3818,23356,38180.00
3819,23336,38190.00
3820,23412,38200.00
3821,23512,38210.00
3822,23616,38220.00
3823,23668,38230.00
3824,23676,38240.00
3825,23676,38250.00
3826,23700,38260.00
3827,23744,38270.00
3828,23808,38280.00
3829,23884,38290.00
3830,23952,38300.00
3831,23904,38310.00
3832,23636,38320.00
3833,23364,38330.00
3834,23260,38340.00
3835,23292,38350.00
3836,23384,38360.00
3837,23484,38370.00
3838,23556,38380.00
3839,23568,38390.00
3840,23564,38400.00
3841,23584,38410.00
3842,23628,38420.00
3843,23688,38430.00
3844,23764,38440.00
3845,23840,38450.00
3846,23908,38460.00
3847,23868,38470.00
3848,23592,38480.00
3849,23284,38490.00
3850,23152,38500.00
3851,23184,38510.00
3852,23268,38520.00
3853,23368,38530.00
3854,23436,38540.00
3855,23456,38550.00
3856,23460,38560.00
3857,23472,38570.00
3858,23512,38580.00
3859,23576,38590.00
3860,23660,38600.00
3861,23736,38610.00
3862,23804,38620.00
3863,23856,38630.00
3864,23904,38640.00
3865,23948,38650.00
3866,23820,38660.00
3867,23496,38670.00
3868,23196,38680.00
3869,23100,38690.00
3870,23148,38700.00
3871,23232,38710.00
3872,23324,38720.00
3873,23384,38730.00
3874,23396,38740.00
3875,23392,38750.00
3876,23412,38760.00
3877,23460,38770.00
3878,23528,38780.00
3879,23608,38790.00
3880,23688,38800.00
3881,23752,38810.00
3882,23816,38820.00
3883,23868,38830.00
3884,23912,38840.00
3885,23960,38850.00
3886,24008,38860.00
3887,24028,38870.00
3888,23852,38880.00
3889,23504,38890.00
3890,23220,38900.00
3891,23148,38910.00
3892,23196,38920.00
3893,23284,38930.00
3894,23376,38940.00
3895,23424,38950.00
3896,23424,38960.00
3897,23420,38970.00
3898,23444,38980.00
3899,23504,38990.00
3900,23576,39000.00
3901,23652,39010.00
3902,23740,39020.00
3903,23824,39030.00
3904,23888,39040.00
3905,23952,39050.00
3906,24020,39060.00
3907,24080,39070.00
3908,24156,39080.00
3909,24248,39090.00
3910,24252,39100.00
3911,24028,39110.00
3912,23736,39120.00
3913,23540,39130.00
3914,23472,39140.00
3915,23452,39150.00
3916,23468,39160.00
3917,23500,39170.00
3918,23516,39180.00
3919,23524,39190.00
3920,23536,39200.00
3921,23556,39210.00
3922,23608,39220.00
3923,23688,39230.00
3924,23768,39240.00
3925,23856,39250.00
3926,23928,39260.00
3927,23988,39270.00
3928,24044,39280.00
3929,24092,39290.00
3930,24152,39300.00
3931,24156,39310.00
3932,23960,39320.00
3933,23660,39330.00
3934,23432,39340.00
3935,23368,39350.00
3936,23420,39360.00
3937,23516,39370.00
3938,23620,39380.00
3939,23668,39390.00
3940,23668,39400.00
3941,23656,39410.00
3942,23684,39420.00
3943,23744,39430.00
3944,23820,39440.00
3945,23904,39450.00
3946,23988,39460.00
3947,24064,39470.00
3948,24120,39480.00
3949,24164,39490.00
3950,24212,39500.00
3951,24256,39510.00
3952,24124,39520.00
3953,23828,39530.00
3954,23552,39540.00
3955,23432,39550.00
3956,23448,39560.00
3957,23520,39570.00
3958,23616,39580.00
3959,23676,39590.00
3960,23680,39600.00
3961,23668,39610.00
3962,23680,39620.00
3963,23720,39630.00
3964,23784,39640.00
3965,23864,39650.00
3966,23940,39660.00
3967,24008,39670.00
3968,24068,39680.00
3969,24128,39690.00
3970,24188,39700.00
3971,24240,39710.00
3972,24292,39720.00
3973,24356,39730.00
3974,24344,39740.00
3975,24104,39750.00
3976,23764,39760.00
3977,23532,39770.00
3978,23456,39780.00
3979,23480,39790.00
3980,23548,39800.00
3981,23620,39810.00
3982,23656,39820.00
3983,23640,39830.00
3984,23632,39840.00
3985,23660,39850.00
3986,23712,39860.00
3987,23784,39870.00
3988,23868,39880.00
3989,23944,39890.00
3990,24008,39900.00
3991,24068,39910.00
3992,24124,39920.00
3993,24172,39930.00
3994,24216,39940.00
3995,24260,39950.00
3996,24312,39960.00
3997,24332,39970.00
3998,24132,39980.00
3999,23804,39990.00
4000,23552,40000.00
4001,23468,40010.00
4002,23476,40020.00
4003,23536,40030.00
4004,23604,40040.00
4005,23652,40050.00
4006,23644,40060.00
4007,23636,40070.00
4008,23652,40080.00
4009,23700,40090.00
4010,23772,40100.00
4011,23852,40110.00
4012,23924,40120.00
4013,24000,40130.00
4014,24064,40140.00
4015,24116,40150.00
4016,24172,40160.00
4017,24236,40170.00
4018,24248,40180.00
4019,24068,40190.00
4020,23792,40200.00
4021,23576,40210.00
4022,23492,40220.00
4023,23504,40230.00
4024,23564,40240.00
4025,23636,40250.00
4026,23668,40260.00
4027,23652,40270.00
4028,23636,40280.00
4029,23652,40290.00
4030,23692,40300.00
4031,23768,40310.00
4032,23848,40320.00
4033,23920,40330.00
4034,23988,40340.00
4035,24044,40350.00
4036,24084,40360.00
4037,23948,40370.00
4038,23672,40380.00
4039,23452,40390.00
4040,23372,40400.00
4041,23392,40410.00
4042,23468,40420.00
4043,23556,40430.00
4044,23596,40440.00
4045,23580,40450.00
4046,23556,40460.00
4047,23568,40470.00
4048,23620,40480.00
4049,23692,40490.00
4050,23764,40500.00
4051,23836,40510.00
4052,23900,40520.00
4053,23916,40530.00
4054,23736,40540.00
4055,23440,40550.00
4056,23244,40560.00
4057,23204,40570.00
4058,23252,40580.00
4059,23344,40590.00
4060,23420,40600.00
4061,23448,40610.00
4062,23436,40620.00
4063,23432,40630.00
4064,23468,40640.00
4065,23528,40650.00
4066,23608,40660.00
4067,23688,40670.00
4068,23752,40680.00
4069,23808,40690.00
4070,23852,40700.00
4071,23884,40710.00
4072,23744,40720.00
4073,23420,40730.00
4074,23164,40740.00
4075,23076,40750.00
4076,23092,40760.00
4077,23132,40770.00
4078,23196,40780.00
4079,23240,40790.00
4080,23248,40800.00
4081,23244,40810.00
4082,23264,40820.00
4083,23316,40830.00
4084,23384,40840.00
4085,23464,40850.00
4086,23528,40860.00
4087,23584,40870.00
4088,23624,40880.00
4089,23656,40890.00
4090,23684,40900.00
4091,23716,40910.00
4092,23748,40920.00
4093,23776,40930.00
4094,23640,40940.00
4095,23328,40950.00
4096,23072,40960.00
4097,22988,40970.00
4098,23008,40980.00
4099,23040,40990.00
4100,23088,41000.00
4101,23128,41010.00
4102,23140,41020.00
4103,23128,41030.00
4104,23160,41040.00
4105,23228,41050.00
4106,23284,41060.00
4107,23352,41070.00
4108,23444,41080.00
4109,23520,41090.00
4110,23576,41100.00
4111,23624,41110.00
4112,23680,41120.00
4113,23744,41130.00
4114,23808,41140.00
4115,23864,41150.00
4116,23920,41160.00
4117,23980,41170.00
4118,24012,41180.00
4119,23868,41190.00
4120,23564,41200.00
4121,23332,41210.00
4122,23260,41220.00
4123,23268,41230.00
4124,23292,41240.00
4125,23348,41250.00
4126,23392,41260.00
4127,23404,41270.00
4128,23400,41280.00
4129,23416,41290.00
4130,23464,41300.00
4131,23520,41310.00
4132,23584,41320.00
4133,23648,41330.00
4134,23704,41340.00
4135,23748,41350.00
4136,23796,41360.00
4137,23844,41370.00
4138,23880,41380.00
4139,23928,41390.00
4140,23984,41400.00
4141,24012,41410.00
4142,23860,41420.00
4143,23592,41430.00
4144,23416,41440.00
4145,23396,41450.00
4146,23432,41460.00
4147,23468,41470.00
4148,23500,41480.00
4149,23520,41490.00
4150,23520,41500.00
4151,23488,41510.00
4152,23488,41520.00
4153,23548,41530.00
4154,23624,41540.00
4155,23708,41550.00
4156,23776,41560.00
4157,23828,41570.00
4158,23884,41580.00
4159,23940,41590.00
4160,24000,41600.00
4161,24044,41610.00
4162,24096,41620.00
4163,24112,41630.00
4164,23932,41640.00
4165,23624,41650.00
4166,23420,41660.00
4167,23384,41670.00
4168,23440,41680.00
4169,23536,41690.00
4170,23624,41700.00
4171,23676,41710.00
4172,23684,41720.00
4173,23688,41730.00
4174,23720,41740.00
4175,23780,41750.00
4176,23860,41760.00
4177,23936,41770.00
4178,24008,41780.00
4179,24068,41790.00
4180,24116,41800.00
4181,24164,41810.00
4182,24208,41820.00
4183,24248,41830.00
4184,24152,41840.00
4185,23896,41850.00
4186,23652,41860.00
4187,23548,41870.00
4188,23540,41880.00
4189,23576,41890.00
4190,23620,41900.00
4191,23652,41910.00
4192,23648,41920.00
4193,23636,41930.00
4194,23648,41940.00
4195,23704,41950.00
4196,23776,41960.00
4197,23852,41970.00
4198,23924,41980.00
4199,23992,41990.00
4200,24044,42000.00
4201,24100,42010.00
4202,24040,42020.00
4203,23816,42030.00
4204,23616,42040.00
4205,23564,42050.00
4206,23608,42060.00
4207,23680,42070.00
4208,23744,42080.00
4209,23792,42090.00
4210,23820,42100.00
4211,23824,42110.00
4212,23844,42120.00
4213,23892,42130.00
4214,23964,42140.00
4215,24032,42150.00
4216,24092,42160.00
4217,24156,42170.00
4218,24216,42180.00
4219,24276,42190.00
4220,24328,42200.00
4221,24348,42210.00
4222,24180,42220.00
4223,23872,42230.00
4224,23644,42240.00
4225,23596,42250.00
4226,23636,42260.00
4227,23688,42270.00
4228,23748,42280.00
4229,23784,42290.00
4230,23796,42300.00
4231,23800,42310.00
4232,23816,42320.00
4233,23872,42330.00
4234,23940,42340.00
4235,24024,42350.00
4236,24108,42360.00
4237,24192,42370.00
4238,24272,42380.00
4239,24312,42390.00
4240,24168,42400.00
4241,23864,42410.00
4242,23652,42420.00
4243,23600,42430.00
4244,23624,42440.00
4245,23680,42450.00
4246,23756,42460.00
4247,23816,42470.00
4248,23840,42480.00
4249,23860,42490.00
4250,23904,42500.00
4251,23968,42510.00
4252,24040,42520.00
4253,24124,42530.00
4254,24196,42540.00
4255,24256,42550.00
4256,24248,42560.00
4257,24024,42570.00
4258,23728,42580.00
4259,23568,42590.00
4260,23580,42600.00
4261,23648,42610.00
4262,23728,42620.00
4263,23804,42630.00
4264,23848,42640.00
4265,23864,42650.00
4266,23888,42660.00
4267,23936,42670.00
4268,24004,42680.00
4269,24096,42690.00
4270,24172,42700.00
4271,24228,42710.00
4272,24152,42720.00
4273,23928,42730.00
4274,23772,42740.00
4275,23752,42750.00
4276,23812,42760.00
4277,23900,42770.00
4278,23984,42780.00
4279,24044,42790.00
4280,24072,42800.00
4281,24100,42810.00
4282,24144,42820.00
4283,24196,42830.00
4284,24256,42840.00
4285,24324,42850.00
4286,24316,42860.00
4287,24184,42870.00
4288,24076,42880.00
4289,24056,42890.00
4290,24100,42900.00
4291,24168,42910.00
4292,24236,42920.00
4293,24276,42930.00
4294,24308,42940.00
4295,24336,42950.00
4296,24372,42960.00
4297,24428,42970.00
4298,24484,42980.00
4299,24532,42990.00
4300,24476,43000.00
4301,24372,43010.00
4302,24324,43020.00
4303,24348,43030.00
4304,24404,43040.00
4305,24472,43050.00
4306,24520,43060.00
4307,24540,43070.00
4308,24560,43080.00
4309,24584,43090.00
4310,24624,43100.00
4311,24676,43110.00
4312,24720,43120.00
4313,24716,43130.00
4314,24608,43140.00
4315,24524,43150.00
4316,24520,43160.00
4317,24560,43170.00
4318,24616,43180.00
4319,24664,43190.00
4320,24696,43200.00
4321,24724,43210.00
4322,24744,43220.00
4323,24768,43230.00
4324,24796,43240.00
4325,24836,43250.00
4326,24852,43260.00
4327,24768,43270.00
4328,24676,43280.00
4329,24672,43290.00
4330,24696,43300.00
4331,24732,43310.00
4332,24784,43320.00
4333,24824,43330.00
4334,24856,43340.00
4335,24864,43350.00
4336,24884,43360.00
4337,24916,43370.00
4338,24960,43380.00
4339,24956,43390.00
4340,24864,43400.00
4341,24792,43410.00
4342,24768,43420.00
4343,24784,43430.00
4344,24828,43440.00
4345,24880,43450.00
4346,24908,43460.00
4347,24920,43470.00
4348,24932,43480.00
4349,24956,43490.00
4350,24984,43500.00
4351,25028,43510.00
4352,25032,43520.00
4353,24956,43530.00
4354,24880,43540.00
4355,24864,43550.00
4356,24884,43560.00
4357,24916,43570.00
4358,24960,43580.00
4359,24996,43590.00
4360,25012,43600.00
4361,25032,43610.00
4362,25056,43620.00
4363,25096,43630.00
4364,25132,43640.00
4365,25144,43650.00
4366,25080,43660.00
4367,25012,43670.00
4368,25004,43680.00
4369,25024,43690.00
4370,25056,43700.00
4371,25088,43710.00
4372,25112,43720.00
4373,25124,43730.00
4374,25136,43740.00
4375,25156,43750.00
4376,25184,43760.00
4377,25220,43770.00
4378,25256,43780.00
4379,25256,43790.00
4380,25184,43800.00
4381,25132,43810.00
4382,25140,43820.00
4383,25176,43830.00
4384,25204,43840.00
4385,25236,43850.00
4386,25248,43860.00
4387,25260,43870.00
4388,25272,43880.00
4389,25288,43890.00
4390,25316,43900.00
4391,25348,43910.00
4392,25380,43920.00
4393,25368,43930.00
4394,25304,43940.00
4395,25272,43950.00
4396,25280,43960.00
4397,25316,43970.00
4398,25348,43980.00
4399,25376,43990.00
4400,25388,44000.00
4401,25392,44010.00
4402,25404,44020.00
4403,25424,44030.00
4404,25440,44040.00
4405,25468,44050.00
4406,25504,44060.00
4407,25484,44070.00
4408,25412,44080.00
4409,25376,44090.00
4410,25388,44100.00
4411,25420,44110.00
4412,25448,44120.00
4413,25468,44130.00
4414,25480,44140.00
4415,25484,44150.00
4416,25488,44160.00
4417,25508,44170.00
4418,25532,44180.00
4419,25552,44190.00
4420,25576,44200.00
4421,25592,44210.00
4422,25524,44220.00
4423,25440,44230.00
4424,25424,44240.00
4425,25444,44250.00
4426,25468,44260.00
4427,25484,44270.00
4428,25504,44280.00
4429,25512,44290.00
4430,25512,44300.00
4431,25516,44310.00
4432,25524,44320.00
4433,25548,44330.00
4434,25576,44340.00
4435,25592,44350.00
4436,25612,44360.00
4437,25596,44370.00
4438,25504,44380.00
4439,25444,44390.00
4440,25452,44400.00
4441,25476,44410.00
4442,25496,44420.00
4443,25512,44430.00
4444,25532,44440.00
4445,25540,44450.00
4446,25540,44460.00
4447,25544,44470.00
4448,25556,44480.00
4449,25580,44490.00
4450,25596,44500.00
4451,25612,44510.00
4452,25632,44520.00
4453,25640,44530.00
4454,25560,44540.00
4455,25472,44550.00
4456,25444,44560.00
4457,25456,44570.00
4458,25472,44580.00
4459,25500,44590.00
4460,25512,44600.00
4461,25512,44610.00
4462,25500,44620.00
4463,25500,44630.00
4464,25516,44640.00
4465,25532,44650.00
4466,25552,44660.00
4467,25576,44670.00
4468,25600,44680.00
4469,25608,44690.00
4470,25532,44700.00
4471,25436,44710.00
4472,25400,44720.00
4473,25404,44730.00
4474,25428,44740.00
4475,25456,44750.00
4476,25464,44760.00
4477,25460,44770.00
4478,25452,44780.00
4479,25452,44790.00
4480,25464,44800.00
4481,25484,44810.00
4482,25512,44820.00
4483,25536,44830.00
4484,25556,44840.00
4485,25564,44850.00
4486,25488,44860.00
4487,25372,44870.00
4488,25308,44880.00
4489,25308,44890.00
4490,25328,44900.00
4491,25348,44910.00
4492,25360,44920.00
4493,25352,44930.00
4494,25348,44940.00
4495,25352,44950.00
4496,25360,44960.00
4497,25384,44970.00
4498,25408,44980.00
4499,25440,44990.00
4500,25464,45000.00
4501,25492,45010.00
4502,25496,45020.00
4503,25404,45030.00
4504,25272,45040.00
4505,25208,45050.00
4506,25200,45060.00
4507,25216,45070.00
4508,25228,45080.00
4509,25248,45090.00
4510,25252,45100.00
4511,25244,45110.00
4512,25252,45120.00
4513,25268,45130.00
4514,25296,45140.00
4515,25328,45150.00
4516,25360,45160.00
4517,25388,45170.00
4518,25416,45180.00
4519,25444,45190.00
4520,25468,45200.00
4521,25492,45210.00
4522,25484,45220.00
4523,25380,45230.00
4524,25236,45240.00
4525,25164,45250.00
4526,25148,45260.00
4527,25164,45270.00
4528,25184,45280.00
4529,25204,45290.00
4530,25208,45300.00
4531,25208,45310.00
4532,25212,45320.00
4533,25228,45330.00
4534,25256,45340.00
4535,25284,45350.00
4536,25312,45360.00
4537,25336,45370.00
4538,25356,45380.00
4539,25384,45390.00
4540,25404,45400.00
4541,25428,45410.00
4542,25456,45420.00
4543,25484,45430.00
4544,25516,45440.00
4545,25540,45450.00
4546,25528,45460.00
4547,25400,45470.00
4548,25248,45480.00
4549,25168,45490.00
4550,25156,45500.00
4551,25160,45510.00
4552,25180,45520.00
4553,25188,45530.00
4554,25188,45540.00
4555,25180,45550.00
4556,25176,45560.00
4557,25188,45570.00
4558,25216,45580.00
4559,25244,45590.00
4560,25276,45600.00
4561,25308,45610.00
4562,25336,45620.00
4563,25364,45630.00
4564,25388,45640.00
4565,25408,45650.00
4566,25436,45660.00
4567,25456,45670.00
4568,25460,45680.00
4569,25360,45690.00
4570,25200,45700.00
4571,25088,45710.00
4572,25048,45720.00
4573,25056,45730.00
4574,25076,45740.00
4575,25096,45750.00
4576,25100,45760.00
4577,25088,45770.00
4578,25080,45780.00
4579,25092,45790.00
4580,25108,45800.00
4581,25140,45810.00
4582,25176,45820.00
4583,25200,45830.00
4584,25224,45840.00
4585,25248,45850.00
4586,25272,45860.00
4587,25292,45870.00
4588,25316,45880.00
4589,25272,45890.00
4590,25120,45900.00
4591,24956,45910.00
4592,24872,45920.00
4593,24860,45930.00
4594,24880,45940.00
4595,24900,45950.00
4596,24916,45960.00
4597,24912,45970.00
4598,24896,45980.00
4599,24888,45990.00
4600,24900,46000.00
4601,24920,46010.00
4602,24952,46020.00
4603,24984,46030.00
4604,25016,46040.00
4605,25052,46050.00
4606,25080,46060.00
4607,25108,46070.00
4608,25096,46080.00
4609,24952,46090.00
4610,24760,46100.00
4611,24640,46110.00
4612,24612,46120.00
4613,24624,46130.00
4614,24648,46140.00
4615,24668,46150.00
4616,24676,46160.00
4617,24668,46170.00
4618,24672,46180.00
4619,24688,46190.00
4620,24724,46200.00
4621,24764,46210.00
4622,24808,46220.00
4623,24852,46230.00
4624,24896,46240.00
4625,24940,46250.00
4626,24980,46260.00
4627,24956,46270.00
4628,24796,46280.00
4629,24604,46290.00
4630,24492,46300.00
4631,24464,46310.00
4632,24484,46320.00
4633,24516,46330.00
4634,24544,46340.00
4635,24548,46350.00
4636,24544,46360.00
4637,24556,46370.00
4638,24584,46380.00
4639,24628,46390.00
4640,24676,46400.00
4641,24728,46410.00
4642,24772,46420.00
4643,24816,46430.00
4644,24856,46440.00
4645,24864,46450.00
4646,24740,46460.00
4647,24532,46470.00
4648,24396,46480.00
4649,24368,46490.00
4650,24384,46500.00
4651,24428,46510.00
4652,24468,46520.00
4653,24484,46530.00
4654,24488,46540.00
4655,24496,46550.00
4656,24528,46560.00
4657,24572,46570.00
4658,24620,46580.00
4659,24668,46590.00
4660,24720,46600.00
4661,24756,46610.00
4662,24740,46620.00
4663,24580,46630.00
4664,24376,46640.00
4665,24256,46650.00
4666,24236,46660.00
4667,24264,46670.00
4668,24312,46680.00
4669,24352,46690.00
4670,24368,46700.00
4671,24372,46710.00
4672,24392,46720.00
4673,24424,46730.00
4674,24468,46740.00
4675,24524,46750.00
4676,24576,46760.00
4677,24620,46770.00
4678,24660,46780.00
4679,24688,46790.00
4680,24588,46800.00
4681,24364,46810.00
4682,24184,46820.00
4683,24136,46830.00
4684,24144,46840.00
4685,24168,46850.00
4686,24212,46860.00
4687,24248,46870.00
4688,24260,46880.00
4689,24260,46890.00
4690,24280,46900.00
4691,24316,46910.00
4692,24356,46920.00
4693,24404,46930.00
4694,24444,46940.00
4695,24488,46950.00
4696,24524,46960.00
4697,24568,46970.00
4698,24600,46980.00
4699,24644,46990.00
4700,24688,47000.00
4701,24728,47010.00
4702,24736,47020.00
4703,24564,47030.00
4704,24276,47040.00
4705,24068,47050.00
4706,24008,47060.00
4707,23996,47070.00
4708,24000,47080.00
4709,24024,47090.00
4710,24040,47100.00
4711,24040,47110.00
4712,24048,47120.00
4713,24076,47130.00
4714,24124,47140.00
4715,24184,47150.00
4716,24244,47160.00
4717,24300,47170.00
4718,24356,47180.00
4719,24404,47190.00
4720,24444,47200.00
4721,24492,47210.00
4722,24540,47220.00
4723,24584,47230.00
4724,24628,47240.00
4725,24672,47250.00
4726,24712,47260.00
4727,24748,47270.00
4728,24760,47280.00
4729,24588,47290.00
4730,24288,47300.00
4731,24080,47310.00
4732,24012,47320.00
4733,24000,47330.00
4734,24008,47340.00
4735,24032,47350.00
4736,24056,47360.00
4737,24064,47370.00
4738,24068,47380.00
4739,24092,47390.00
4740,24144,47400.00
4741,24204,47410.00
4742,24260,47420.00
4743,24320,47430.00
4744,24372,47440.00
4745,24420,47450.00
4746,24464,47460.00
4747,24512,47470.00
4748,24560,47480.00
4749,24608,47490.00
4750,24664,47500.00
4751,24724,47510.00
4752,24708,47520.00
4753,24500,47530.00
4754,24224,47540.00
4755,24080,47550.00
4756,24056,47560.00
4757,24084,47570.00
4758,24136,47580.00
4759,24188,47590.00
4760,24204,47600.00
4761,24212,47610.00
4762,24228,47620.00
4763,24264,47630.00
4764,24320,47640.00
4765,24384,47650.00
4766,24448,47660.00
4767,24512,47670.00
4768,24568,47680.00
4769,24612,47690.00
4770,24664,47700.00
4771,24716,47710.00
4772,24764,47720.00
4773,24808,47730.00
4774,24860,47740.00
4775,24860,47750.00
4776,24688,47760.00
4777,24468,47770.00
4778,24336,47780.00
4779,24320,47790.00
4780,24352,47800.00
4781,24400,47810.00
4782,24420,47820.00
4783,24412,47830.00
4784,24388,47840.00
4785,24388,47850.00
4786,24408,47860.00
4787,24448,47870.00
4788,24492,47880.00
4789,24544,47890.00
4790,24588,47900.00
4791,24620,47910.00
4792,24644,47920.00
4793,24668,47930.00
4794,24652,47940.00
4795,24488,47950.00
4796,24256,47960.00
4797,24120,47970.00
4798,24088,47980.00
4799,24112,47990.00
4800,24160,48000.00
4801,24192,48010.00
4802,24196,48020.00
4803,24184,48030.00
4804,24188,48040.00
4805,24228,48050.00
4806,24284,48060.00
4807,24344,48070.00
4808,24392,48080.00
4809,24440,48090.00
4810,24476,48100.00
4811,24416,48110.00
4812,24176,48120.00
4813,23940,48130.00
4814,23840,48140.00
4815,23824,48150.00
4816,23844,48160.00
4817,23896,48170.00
4818,23940,48180.00
4819,23948,48190.00
4820,23940,48200.00
4821,23956,48210.00
4822,23996,48220.00
4823,24052,48230.00
4824,24120,48240.00
4825,24176,48250.00
4826,24240,48260.00
4827,24216,48270.00
4828,23988,48280.00
4829,23756,48290.00
4830,23684,48300.00
4831,23712,48310.00
4832,23772,48320.00
4833,23856,48330.00
4834,23924,48340.00
4835,23960,48350.00
4836,23984,48360.00
4837,24028,48370.00
4838,24088,48380.00
4839,24164,48390.00
4840,24228,48400.00
4841,24288,48410.00
4842,24340,48420.00
4843,24396,48430.00
4844,24456,48440.00
4845,24480,48450.00
4846,24328,48460.00
4847,24020,48470.00
4848,23812,48480.00
4849,23776,48490.00
4850,23812,48500.00
4851,23880,48510.00
4852,23944,48520.00
4853,23988,48530.00
4854,24008,48540.00
4855,24024,48550.00
4856,24056,48560.00
4857,24124,48570.00
4858,24212,48580.00
4859,24300,48590.00
4860,24380,48600.00
4861,24448,48610.00
4862,24500,48620.00
4863,24552,48630.00
4864,24608,48640.00
4865,24676,48650.00
4866,24748,48660.00
4867,24816,48670.00
4868,24768,48680.00
4869,24508,48690.00
4870,24220,48700.00
4871,24100,48710.00
4872,24092,48720.00
4873,24116,48730.00
4874,24160,48740.00
4875,24200,48750.00
4876,24220,48760.00
4877,24220,48770.00
4878,24232,48780.00
4879,24268,48790.00
4880,24328,48800.00
4881,24400,48810.00
4882,24464,48820.00
4883,24536,48830.00
4884,24596,48840.00
4885,24652,48850.00
4886,24704,48860.00
4887,24752,48870.00
4888,24792,48880.00
4889,24840,48890.00
4890,24840,48900.00
4891,24644,48910.00
4892,24344,48920.00
4893,24160,48930.00
4894,24120,48940.00
4895,24140,48950.00
4896,24192,48960.00
4897,24252,48970.00
4898,24272,48980.00
4899,24264,48990.00
4900,24272,49000.00
4901,24316,49010.00
4902,24376,49020.00
4903,24448,49030.00
4904,24520,49040.00
4905,24572,49050.00
4906,24596,49060.00
4907,24600,49070.00
4908,24612,49080.00
4909,24560,49090.00
4910,24312,49100.00
4911,24024,49110.00
4912,23888,49120.00
4913,23892,49130.00
4914,23948,49140.00
4915,24020,49150.00
4916,24076,49160.00
4917,24092,49170.00
4918,24088,49180.00
4919,24100,49190.00
4920,24152,49200.00
4921,24216,49210.00
4922,24272,49220.00
4923,24328,49230.00
4924,24392,49240.00
4925,24452,49250.00
4926,24512,49260.00
4927,24548,49270.00
4928,24404,49280.00
4929,24104,49290.00
4930,23888,49300.00
4931,23824,49310.00
4932,23848,49320.00
4933,23900,49330.00
4934,23960,49340.00
4935,24020,49350.00
4936,24052,49360.00
4937,24072,49370.00
4938,24112,49380.00
4939,24176,49390.00
4940,24256,49400.00
4941,24336,49410.00
4942,24412,49420.00
4943,24476,49430.00
4944,24540,49440.00
4945,24600,49450.00
4946,24584,49460.00
4947,24364,49470.00
4948,24100,49480.00
4949,23964,49490.00
4950,23948,49500.00
4951,23976,49510.00
4952,24024,49520.00
4953,24068,49530.00
4954,24084,49540.00
4955,24072,49550.00
4956,24072,49560.00
4957,24096,49570.00
4958,24148,49580.00
4959,24216,49590.00
4960,24296,49600.00
4961,24376,49610.00
4962,24456,49620.00
4963,24520,49630.00
4964,24564,49640.00
4965,24608,49650.00
4966,24604,49660.00
4967,24396,49670.00
4968,24076,49680.00
4969,23888,49690.00
4970,23844,49700.00
4971,23880,49710.00
4972,23940,49720.00
4973,23996,49730.00
4974,24032,49740.00
4975,24052,49750.00
4976,24072,49760.00
4977,24116,49770.00
4978,24176,49780.00
4979,24244,49790.00
4980,24324,49800.00
4981,24400,49810.00
4982,24464,49820.00
4983,24524,49830.00
4984,24584,49840.00
4985,24652,49850.00
4986,24712,49860.00
4987,24720,49870.00
4988,24536,49880.00
4989,24228,49890.00
4990,24004,49900.00
4991,23932,49910.00
4992,23956,49920.00
4993,24032,49930.00
4994,24116,49940.00
4995,24160,49950.00
4996,24176,49960.00
4997,24184,49970.00
4998,24212,49980.00
4999,24268,49990.00
5000,24348,50000.00
5001,24424,50010.00
5002,24504,50020.00
5003,24580,50030.00
5004,24648,50040.00
5005,24712,50050.00
5006,24772,50060.00
5007,24796,50070.00
5008,24660,50080.00
5009,24376,50090.00
5010,24152,50100.00
5011,24080,50110.00
5012,24104,50120.00
5013,24184,50130.00
5014,24268,50140.00
5015,24316,50150.00
5016,24324,50160.00
5017,24324,50170.00
5018,24348,50180.00
5019,24400,50190.00
5020,24468,50200.00
5021,24544,50210.00
5022,24616,50220.00
5023,24692,50230.00
5024,24756,50240.00
5025,24816,50250.00
5026,24864,50260.00
5027,24760,50270.00
5028,24500,50280.00
5029,24264,50290.00
5030,24164,50300.00
5031,24176,50310.00
5032,24252,50320.00
5033,24344,50330.00
5034,24404,50340.00
5035,24416,50350.00
5036,24412,50360.00
5037,24428,50370.00
5038,24468,50380.00
5039,24524,50390.00
5040,24592,50400.00
5041,24660,50410.00
5042,24728,50420.00
5043,24780,50430.00
5044,24832,50440.00
5045,24800,50450.00
5046,24604,50460.00
5047,24356,50470.00
5048,24208,50480.00
5049,24180,50490.00
5050,24232,50500.00
5051,24320,50510.00
5052,24388,50520.00
5053,24400,50530.00
5054,24392,50540.00
5055,24392,50550.00
5056,24420,50560.00
5057,24464,50570.00
5058,24532,50580.00
5059,24584,50590.00
5060,24636,50600.00
5061,24688,50610.00
5062,24632,50620.00
5063,24424,50630.00
5064,24196,50640.00
5065,24080,50650.00
5066,24064,50660.00
5067,24116,50670.00
5068,24188,50680.00
5069,24236,50690.00
5070,24240,50700.00
5071,24216,50710.00
5072,24228,50720.00
5073,24272,50730.00
5074,24324,50740.00
5075,24384,50750.00
5076,24444,50760.00
5077,24492,50770.00
5078,24384,50780.00
5079,24116,50790.00
5080,23868,50800.00
5081,23756,50810.00
5082,23760,50820.00
5083,23824,50830.00
5084,23908,50840.00
5085,23956,50850.00
5086,23964,50860.00
5087,23968,50870.00
5088,23992,50880.00
5089,24040,50890.00
5090,24096,50900.00
5091,24152,50910.00
5092,24212,50920.00
5093,24268,50930.00
5094,24252,50940.00
5095,24036,50950.00
5096,23748,50960.00
5097,23568,50970.00
5098,23524,50980.00
5099,23556,50990.00
5100,23616,51000.00
5101,23672,51010.00
5102,23696,51020.00
5103,23700,51030.00
5104,23716,51040.00
5105,23752,51050.00
5106,23804,51060.00
5107,23876,51070.00
5108,23936,51080.00
5109,23996,51090.00
5110,24040,51100.00
5111,24092,51110.00
5112,24132,51120.00
5113,24124,51130.00
5114,23916,51140.00
5115,23596,51150.00
5116,23384,51160.00
5117,23344,51170.00
5118,23380,51180.00
5119,23444,51190.00
5120,23500,51200.00
5121,23524,51210.00
5122,23532,51220.00
5123,23548,51230.00
5124,23588,51240.00
5125,23648,51250.00
5126,23720,51260.00
5127,23784,51270.00
5128,23844,51280.00
5129,23896,51290.00
5130,23940,51300.00
5131,23984,51310.00
5132,24028,51320.00
5133,24076,51330.00
5134,24120,51340.00
5135,24164,51350.00
5136,24212,51360.00
5137,24188,51370.00
5138,23932,51380.00
5139,23576,51390.00
5140,23344,51400.00
5141,23304,51410.00
5142,23344,51420.00
5143,23396,51430.00
5144,23452,51440.00
5145,23468,51450.00
5146,23472,51460.00
5147,23492,51470.00
5148,23540,51480.00
5149,23588,51490.00
5150,23652,51500.00
5151,23700,51510.00
5152,23748,51520.00
5153,23792,51530.00
5154,23832,51540.00
5155,23868,51550.00
5156,23908,51560.00
5157,23948,51570.00
5158,23992,51580.00
5159,24020,51590.00
5160,23848,51600.00
5161,23508,51610.00
5162,23232,51620.00
5163,23160,51630.00
5164,23204,51640.00
5165,23272,51650.00
5166,23332,51660.00
5167,23356,51670.00
5168,23352,51680.00
5169,23360,51690.00
5170,23400,51700.00
5171,23464,51710.00
5172,23544,51720.00
5173,23608,51730.00
5174,23672,51740.00
5175,23724,51750.00
5176,23772,51760.00
5177,23820,51770.00
5178,23860,51780.00
5179,23908,51790.00
5180,23964,51800.00
5181,24012,51810.00
5182,23964,51820.00
5183,23680,51830.00
5184,23320,51840.00
5185,23148,51850.00
5186,23152,51860.00
5187,23208,51870.00
5188,23268,51880.00
5189,23328,51890.00
5190,23356,51900.00
5191,23368,51910.00
5192,23384,51920.00
5193,23436,51930.00
5194,23512,51940.00
5195,23588,51950.00
5196,23656,51960.00
5197,23712,51970.00
5198,23760,51980.00
5199,23804,51990.00
5200,23852,52000.00
5201,23896,52010.00
5202,23944,52020.00
5203,23996,52030.00
5204,24052,52040.00
5205,24020,52050.00
5206,23744,52060.00
5207,23388,52070.00
5208,23192,52080.00
5209,23196,52090.00
5210,23256,52100.00
5211,23316,52110.00
5212,23372,52120.00
5213,23400,52130.00
5214,23404,52140.00
5215,23420,52150.00
5216,23456,52160.00
5217,23524,52170.00
5218,23600,52180.00
5219,23672,52190.00
5220,23732,52200.00
5221,23784,52210.00
5222,23840,52220.00
5223,23884,52230.00
5224,23932,52240.00
5225,23980,52250.00
5226,24032,52260.00
5227,24080,52270.00
5228,24132,52280.00
5229,24108,52290.00
5230,23836,52300.00
5231,23448,52310.00
5232,23228,52320.00
5233,23220,52330.00
5234,23280,52340.00
5235,23340,52350.00
5236,23388,52360.00
5237,23412,52370.00
5238,23408,52380.00
5239,23416,52390.00
5240,23464,52400.00
5241,23528,52410.00
5242,23596,52420.00
5243,23664,52430.00
5244,23720,52440.00
5245,23776,52450.00
5246,23828,52460.00
5247,23872,52470.00
5248,23916,52480.00
5249,23968,52490.00
5250,24012,52500.00
5251,24012,52510.00
5252,23788,52520.00
5253,23464,52530.00
5254,23288,52540.00
5255,23308,52550.00
5256,23416,52560.00
5257,23528,52570.00
5258,23600,52580.00
5259,23608,52590.00
5260,23604,52600.00
5261,23620,52610.00
5262,23676,52620.00
5263,23784,52630.00
5264,23884,52640.00
5265,23964,52650.00
5266,24016,52660.00
5267,24044,52670.00
5268,24056,52680.00
5269,24072,52690.00
5270,24084,52700.00
5271,24048,52710.00
5272,23804,52720.00
5273,23456,52730.00
5274,23260,52740.00
5275,23284,52750.00
5276,23336,52760.00
5277,23380,52770.00
5278,23400,52780.00
5279,23384,52790.00
5280,23360,52800.00
5281,23360,52810.00
5282,23404,52820.00
5283,23468,52830.00
5284,23524,52840.00
5285,23564,52850.00
5286,23612,52860.00
5287,23656,52870.00
5288,23692,52880.00
5289,23640,52890.00
5290,23376,52900.00
5291,23108,52910.00
5292,23028,52920.00
5293,23084,52930.00
5294,23148,52940.00
5295,23204,52950.00
5296,23268,52960.00
5297,23312,52970.00
5298,23344,52980.00
5299,23368,52990.00
5300,23420,53000.00
5301,23484,53010.00
5302,23544,53020.00
5303,23588,53030.00
5304,23612,53040.00
5305,23644,53050.00
5306,23616,53060.00
5307,23368,53070.00
5308,23076,53080.00
5309,22980,53090.00
5310,23000,53100.00
5311,23032,53110.00
5312,23096,53120.00
5313,23192,53130.00
5314,23268,53140.00
5315,23300,53150.00
5316,23332,53160.00
5317,23384,53170.00
5318,23468,53180.00
5319,23552,53190.00
5320,23624,53200.00
5321,23684,53210.00
5322,23740,53220.00
5323,23796,53230.00
5324,23852,53240.00
5325,23820,53250.00
5326,23572,53260.00
5327,23316,53270.00
5328,23224,53280.00
5329,23248,53290.00
5330,23280,53300.00
5331,23332,53310.00
5332,23408,53320.00
5333,23460,53330.00
5334,23476,53340.00
5335,23504,53350.00
5336,23560,53360.00
5337,23636,53370.00
5338,23712,53380.00
5339,23784,53390.00
5340,23856,53400.00
5341,23916,53410.00
5342,23972,53420.00
5343,24032,53430.00
5344,24096,53440.00
5345,24156,53450.00
5346,24216,53460.00
5347,24280,53470.00
5348,24336,53480.00
5349,24372,53490.00
5350,24244,53500.00
5351,23948,53510.00
5352,23688,53520.00
5353,23588,53530.00
5354,23576,53540.00
5355,23584,53550.00
5356,23616,53560.00
5357,23648,53570.00
5358,23676,53580.00
5359,23692,53590.00
5360,23720,53600.00
5361,23776,53610.00
5362,23848,53620.00
5363,23912,53630.00
5364,23972,53640.00
5365,24032,53650.00
5366,24084,53660.00
5367,24132,53670.00
5368,24188,53680.00
5369,24248,53690.00
5370,24300,53700.00
5371,24356,53710.00
5372,24412,53720.00
5373,24460,53730.00
5374,24412,53740.00
5375,24180,53750.00
5376,23912,53760.00
5377,23748,53770.00
5378,23704,53780.00
5379,23696,53790.00
5380,23708,53800.00
5381,23736,53810.00
5382,23744,53820.00
5383,23744,53830.00
5384,23768,53840.00
5385,23812,53850.00
5386,23872,53860.00
5387,23940,53870.00
5388,24004,53880.00
5389,24064,53890.00
5390,24120,53900.00
5391,24176,53910.00
5392,24232,53920.00
5393,24280,53930.00
5394,24328,53940.00
5395,24384,53950.00
5396,24448,53960.00
5397,24444,53970.00
5398,24260,53980.00
5399,23988,53990.00
5400,23804,54000.00
5401,23740,54010.00
5402,23736,54020.00
5403,23756,54030.00
5404,23780,54040.00
5405,23792,54050.00
5406,23784,54060.00
5407,23784,54070.00
5408,23800,54080.00
5409,23852,54090.00
5410,23920,54100.00
5411,23992,54110.00
5412,24060,54120.00
5413,24112,54130.00
5414,24164,54140.00
5415,24216,54150.00
5416,24268,54160.00
5417,24328,54170.00
5418,24356,54180.00
5419,24216,54190.00
5420,23952,54200.00
5421,23740,54210.00
5422,23664,54220.00
5423,23660,54230.00
5424,23680,54240.00
5425,23712,54250.00
5426,23736,54260.00
5427,23740,54270.00
5428,23732,54280.00
5429,23756,54290.00
5430,23816,54300.00
5431,23892,54310.00
5432,23972,54320.00
5433,24044,54330.00
5434,24104,54340.00
5435,24160,54350.00
5436,24208,54360.00
5437,24268,54370.00
5438,24328,54380.00
5439,24352,54390.00
5440,24180,54400.00
5441,23884,54410.00
5442,23656,54420.00
5443,23572,54430.00
5444,23564,54440.00
5445,23584,54450.00
5446,23616,54460.00
5447,23648,54470.00
5448,23660,54480.00
5449,23672,54490.00
5450,23704,54500.00
5451,23756,54510.00
5452,23832,54520.00
5453,23916,54530.00
5454,23996,54540.00
5455,24060,54550.00
5456,24112,54560.00
5457,24168,54570.00
5458,24224,54580.00
5459,24288,54590.00
5460,24328,54600.00
5461,24180,54610.00
5462,23868,54620.00
5463,23596,54630.00
5464,23484,54640.00
5465,23476,54650.00
5466,23492,54660.00
5467,23536,54670.00
5468,23576,54680.00
5469,23596,54690.00
5470,23604,54700.00
5471,23624,54710.00
5472,23676,54720.00
5473,23744,54730.00
5474,23828,54740.00
5475,23904,54750.00
5476,23980,54760.00
5477,24032,54770.00
5478,24080,54780.00
5479,24132,54790.00
5480,24204,54800.00
5481,24248,54810.00
5482,24076,54820.00
5483,23760,54830.00
5484,23520,54840.00
5485,23436,54850.00
5486,23436,54860.00
5487,23460,54870.00
5488,23504,54880.00
5489,23536,54890.00
5490,23552,54900.00
5491,23564,54910.00
5492,23608,54920.00
5493,23676,54930.00
5494,23744,54940.00
5495,23824,54950.00
5496,23900,54960.00
5497,23976,54970.00
5498,24040,54980.00
5499,24100,54990.00
5500,24152,55000.00
5501,24180,55010.00
5502,24036,55020.00
5503,23740,55030.00
5504,23476,55040.00
5505,23368,55050.00
5506,23372,55060.00
5507,23420,55070.00
5508,23484,55080.00
5509,23524,55090.00
5510,23528,55100.00
5511,23532,55110.00
5512,23556,55120.00
5513,23612,55130.00
5514,23688,55140.00
5515,23772,55150.00
5516,23844,55160.00
5517,23900,55170.00
5518,23944,55180.00
5519,23996,55190.00
5520,24004,55200.00
5521,23804,55210.00
5522,23504,55220.00
5523,23316,55230.00
5524,23284,55240.00
5525,23332,55250.00
5526,23404,55260.00
5527,23472,55270.00
5528,23496,55280.00
5529,23492,55290.00
5530,23512,55300.00
5531,23560,55310.00
5532,23636,55320.00
5533,23716,55330.00
5534,23804,55340.00
5535,23880,55350.00
5536,23928,55360.00
5537,23988,55370.00
5538,24004,55380.00
5539,23804,55390.00
5540,23496,55400.00
5541,23300,55410.00
5542,23280,55420.00
5543,23340,55430.00
5544,23408,55440.00
5545,23468,55450.00
5546,23504,55460.00
5547,23476,55470.00
5548,23428,55480.00
5549,23404,55490.00
5550,23428,55500.00
5551,23488,55510.00
5552,23552,55520.00
5553,23636,55530.00
5554,23720,55540.00
5555,23796,55550.00
5556,23860,55560.00
5557,23796,55570.00
5558,23512,55580.00
5559,23228,55590.00
5560,23104,55600.00
5561,23132,55610.00
5562,23192,55620.00
5563,23244,55630.00
5564,23284,55640.00
5565,23284,55650.00
5566,23268,55660.00
5567,23272,55670.00
5568,23308,55680.00
5569,23372,55690.00
5570,23456,55700.00
5571,23544,55710.00
5572,23616,55720.00
5573,23684,55730.00
5574,23752,55740.00
5575,23816,55750.00
5576,23876,55760.00
5577,23944,55770.00
5578,23964,55780.00
5579,23740,55790.00
5580,23376,55800.00
5581,23120,55810.00
5582,23056,55820.00
5583,23088,55830.00
5584,23136,55840.00
5585,23196,55850.00
5586,23236,55860.00
5587,23260,55870.00
5588,23276,55880.00
5589,23324,55890.00
5590,23392,55900.00
5591,23476,55910.00
5592,23560,55920.00
5593,23640,55930.00
5594,23704,55940.00
5595,23768,55950.00
5596,23820,55960.00
5597,23880,55970.00
5598,23944,55980.00
5599,24004,55990.00
5600,24072,56000.00
5601,24140,56010.00
5602,24172,56020.00
5603,23976,56030.00
5604,23620,56040.00
5605,23332,56050.00
5606,23228,56060.00
5607,23232,56070.00
5608,23280,56080.00
5609,23332,56090.00
5610,23368,56100.00
5611,23372,56110.00
5612,23380,56120.00
5613,23416,56130.00
5614,23480,56140.00
5615,23560,56150.00
5616,23648,56160.00
5617,23736,56170.00
5618,23808,56180.00
5619,23872,56190.00
5620,23936,56200.00
5621,23996,56210.00
5622,24060,56220.00
5623,24116,56230.00
5624,24184,56240.00
5625,24192,56250.00
5626,23964,56260.00
5627,23620,56270.00
5628,23384,56280.00
5629,23316,56290.00
5630,23336,56300.00
5631,23384,56310.00
5632,23444,56320.00
5633,23468,56330.00
5634,23468,56340.00
5635,23476,56350.00
5636,23508,56360.00
5637,23576,56370.00
5638,23656,56380.00
5639,23744,56390.00
5640,23824,56400.00
5641,23884,56410.00
5642,23936,56420.00
5643,23988,56430.00
5644,24032,56440.00
5645,24088,56450.00
5646,24056,56460.00
5647,23816,56470.00
5648,23520,56480.00
5649,23348,56490.00
5650,23332,56500.00
5651,23392,56510.00
5652,23480,56520.00
5653,23536,56530.00
5654,23544,56540.00
5655,23528,56550.00
5656,23544,56560.00
5657,23592,56570.00
5658,23660,56580.00
5659,23740,56590.00
5660,23816,56600.00
5661,23884,56610.00
5662,23940,56620.00
5663,23996,56630.00
5664,24048,56640.00
5665,24060,56650.00
5666,23860,56660.00
5667,23548,56670.00
5668,23320,56680.00
5669,23256,56690.00
5670,23288,56700.00
5671,23336,56710.00
5672,23392,56720.00
5673,23420,56730.00
5674,23416,56740.00
5675,23420,56750.00
5676,23452,56760.00
5677,23508,56770.00
5678,23588,56780.00
5679,23668,56790.00
5680,23744,56800.00
5681,23808,56810.00
5682,23856,56820.00
5683,23912,56830.00
5684,23952,56840.00
5685,23812,56850.00
5686,23496,56860.00
5687,23232,56870.00
5688,23140,56880.00
5689,23160,56890.00
5690,23200,56900.00
5691,23256,56910.00
5692,23296,56920.00
5693,23308,56930.00
5694,23316,56940.00
5695,23352,56950.00
5696,23408,56960.00
5697,23488,56970.00
5698,23568,56980.00
5699,23644,56990.00
5700,23712,57000.00
5701,23772,57010.00
5702,23820,57020.00
5703,23872,57030.00
5704,23924,57040.00
5705,23892,57050.00
5706,23632,57060.00
5707,23308,57070.00
5708,23128,57080.00
5709,23104,57090.00
5710,23132,57100.00
5711,23184,57110.00
5712,23232,57120.00
5713,23264,57130.00
5714,23272,57140.00
5715,23292,57150.00
5716,23336,57160.00
5717,23404,57170.00
5718,23484,57180.00
5719,23548,57190.00
5720,23600,57200.00
5721,23636,57210.00
5722,23672,57220.00
5723,23720,57230.00
5724,23768,57240.00
5725,23824,57250.00
5726,23880,57260.00
5727,23924,57270.00
5728,23776,57280.00
5729,23456,57290.00
5730,23176,57300.00
5731,23068,57310.00
5732,23084,57320.00
5733,23148,57330.00
5734,23212,57340.00
5735,23244,57350.00
5736,23240,57360.00
5737,23232,57370.00
5738,23260,57380.00
5739,23316,57390.00
5740,23392,57400.00
5741,23476,57410.00
5742,23556,57420.00
5743,23612,57430.00
5744,23664,57440.00
5745,23712,57450.00
5746,23764,57460.00
5747,23800,57470.00
5748,23672,57480.00
5749,23372,57490.00
5750,23116,57500.00
5751,23040,57510.00
5752,23084,57520.00
5753,23156,57530.00
5754,23232,57540.00
5755,23264,57550.00
5756,23264,57560.00
5757,23260,57570.00
5758,23304,57580.00
5759,23372,57590.00
5760,23464,57600.00
5761,23544,57610.00
5762,23608,57620.00
5763,23668,57630.00
5764,23720,57640.00
5765,23768,57650.00
5766,23808,57660.00
5767,23848,57670.00
5768,23748,57680.00
5769,23448,57690.00
5770,23152,57700.00
5771,23040,57710.00
5772,23076,57720.00
5773,23132,57730.00
5774,23200,57740.00
5775,23244,57750.00
5776,23260,57760.00
5777,23264,57770.00
5778,23280,57780.00
5779,23332,57790.00
5780,23412,57800.00
5781,23492,57810.00
5782,23556,57820.00
5783,23620,57830.00
5784,23668,57840.00
5785,23716,57850.00
5786,23760,57860.00
5787,23812,57870.00
5788,23804,57880.00
5789,23568,57890.00
5790,23232,57900.00
5791,23048,57910.00
5792,23040,57920.00
5793,23088,57930.00
5794,23148,57940.00
5795,23204,57950.00
5796,23232,57960.00
5797,23232,57970.00
5798,23244,57980.00
5799,23296,57990.00
5800,23368,58000.00
5801,23448,58010.00
5802,23520,58020.00
5803,23592,58030.00
5804,23656,58040.00
5805,23708,58050.00
5806,23764,58060.00
5807,23824,58070.00
5808,23828,58080.00
5809,23640,58090.00
5810,23392,58100.00
5811,23248,58110.00
5812,23228,58120.00
5813,23260,58130.00
5814,23312,58140.00
5815,23360,58150.00
5816,23376,58160.00
5817,23380,58170.00
5818,23408,58180.00
5819,23464,58190.00
5820,23536,58200.00
5821,23612,58210.00
5822,23688,58220.00
5823,23756,58230.00
5824,23812,58240.00
5825,23872,58250.00
5826,23920,58260.00
5827,23852,58270.00
5828,23696,58280.00
5829,23572,58290.00
5830,23536,58300.00
5831,23560,58310.00
5832,23604,58320.00
5833,23648,58330.00
5834,23668,58340.00
5835,23672,58350.00
5836,23688,58360.00
5837,23724,58370.00
5838,23788,58380.00
5839,23852,58390.00
5840,23908,58400.00
5841,23968,58410.00
5842,24020,58420.00
5843,24028,58430.00
5844,23912,58440.00
5845,23772,58450.00
5846,23708,58460.00
5847,23704,58470.00
5848,23724,58480.00
5849,23752,58490.00
5850,23784,58500.00
5851,23796,58510.00
5852,23796,58520.00
5853,23816,58530.00
5854,23860,58540.00
5855,23912,58550.00
5856,23964,58560.00
5857,24012,58570.00
5858,24060,58580.00
5859,24088,58590.00
5860,24012,58600.00
5861,23864,58610.00
5862,23776,58620.00
5863,23748,58630.00
5864,23748,58640.00
5865,23772,58650.00
5866,23800,58660.00
5867,23816,58670.00
5868,23820,58680.00
5869,23832,58690.00
5870,23868,58700.00
5871,23908,58710.00
5872,23952,58720.00
5873,24000,58730.00
5874,24040,58740.00
5875,24076,58750.00
5876,24112,58760.00
5877,24076,58770.00
5878,23952,58780.00
5879,23844,58790.00
5880,23812,58800.00
5881,23816,58810.00
5882,23828,58820.00
5883,23852,58830.00
5884,23880,58840.00
5885,23888,58850.00
5886,23900,58860.00
5887,23920,58870.00
5888,23964,58880.00
5889,24008,58890.00
5890,24048,58900.00
5891,24084,58910.00
5892,24116,58920.00
5893,24152,58930.00
5894,24184,58940.00
5895,24216,58950.00
5896,24256,58960.00
5897,24296,58970.00
5898,24296,58980.00
5899,24184,58990.00
5900,24060,59000.00
5901,24024,59010.00
5902,24036,59020.00
5903,24044,59030.00
5904,24064,59040.00
5905,24088,59050.00
5906,24092,59060.00
5907,24092,59070.00
5908,24104,59080.00
5909,24132,59090.00
5910,24172,59100.00
5911,24208,59110.00
5912,24240,59120.00
5913,24272,59130.00
5914,24304,59140.00
5915,24340,59150.00
5916,24376,59160.00
5917,24412,59170.00
5918,24444,59180.00
5919,24396,59190.00
5920,24280,59200.00
5921,24216,59210.00
5922,24220,59220.00
5923,24240,59230.00
5924,24260,59240.00
5925,24284,59250.00
5926,24288,59260.00
5927,24288,59270.00
5928,24300,59280.00
5929,24332,59290.00
5930,24376,59300.00
5931,24416,59310.00
5932,24452,59320.00
5933,24488,59330.00
5934,24516,59340.00
5935,24548,59350.00
5936,24580,59360.00
5937,24616,59370.00
5938,24644,59380.00
5939,24616,59390.00
5940,24508,59400.00
5941,24428,59410.00
5942,24408,59420.00
5943,24420,59430.00
5944,24428,59440.00
5945,24448,59450.00
5946,24468,59460.00
5947,24472,59470.00
5948,24480,59480.00
5949,24504,59490.00
5950,24540,59500.00
5951,24572,59510.00
5952,24608,59520.00
5953,24640,59530.00
5954,24664,59540.00
5955,24688,59550.00
5956,24708,59560.00
5957,24740,59570.00
5958,24768,59580.00
5959,24788,59590.00
5960,24720,59600.00
5961,24608,59610.00
5962,24548,59620.00
5963,24544,59630.00
5964,24552,59640.00
5965,24568,59650.00
5966,24588,59660.00
5967,24596,59670.00
5968,24596,59680.00
5969,24604,59690.00
5970,24620,59700.00
5971,24644,59710.00
5972,24672,59720.00
5973,24704,59730.00
5974,24732,59740.00
5975,24748,59750.00
5976,24772,59760.00
5977,24800,59770.00
5978,24832,59780.00
5979,24864,59790.00
5980,24888,59800.00
5981,24860,59810.00
5982,24752,59820.00
5983,24664,59830.00
5984,24648,59840.00
5985,24660,59850.00
5986,24668,59860.00
5987,24672,59870.00
5988,24672,59880.00
5989,24668,59890.00
5990,24664,59900.00
5991,24668,59910.00
5992,24696,59920.00
5993,24728,59930.00
5994,24760,59940.00
5995,24788,59950.00
5996,24808,59960.00
5997,24832,59970.00
5998,24852,59980.00
5999,24880,59990.00
