Sample_Index,IR_Value,Timestamp_ms
0,20976,0.00
1,20816,10.00
2,21052,20.00
3,21148,30.00
4,21184,40.00
5,23292,50.00
6,24516,60.00
7,24632,70.00
8,24472,80.00
9,24640,90.00
10,24976,100.00
11,25180,110.00
12,25256,120.00
13,25212,130.00
14,25200,140.00
15,25208,150.00
16,25216,160.00
17,24932,170.00
18,23832,180.00
19,22812,190.00
20,22984,200.00
21,23756,210.00
22,24212,220.00
23,24244,230.00
24,24236,240.00
25,24268,250.00
26,24336,260.00
27,24404,270.00
28,24468,280.00
29,24528,290.00
30,24600,300.00
31,24652,310.00
32,24712,320.00
33,24800,330.00
34,24888,340.00
35,24972,350.00
36,25052,360.00
37,25104,370.00
38,25140,380.00
39,25188,390.00
40,25244,400.00
41,25284,410.00
42,25312,420.00
43,25324,430.00
44,25324,440.00
45,25308,450.00
46,25256,460.00
47,25120,470.00
48,24960,480.00
49,24848,490.00
50,24764,500.00
51,24692,510.00
52,24656,520.00
53,24632,530.00
54,24620,540.00
55,24608,550.00
56,24588,560.00
57,24568,570.00
58,24544,580.00
59,24532,590.00
60,24516,600.00
61,24484,610.00
62,24436,620.00
63,24380,630.00
64,24340,640.00
65,24320,650.00
66,24352,660.00
67,24408,670.00
68,24436,680.00
69,24440,690.00
70,24436,700.00
71,24424,710.00
72,24404,720.00
73,24404,730.00
74,24420,740.00
75,24400,750.00
76,24360,760.00
77,24344,770.00
78,24344,780.00
79,24328,790.00
80,24292,800.00
81,24276,810.00
82,24268,820.00
83,24260,830.00
84,24264,840.00
85,24284,850.00
86,24320,860.00
87,24348,870.00
88,24372,880.00
89,24392,890.00
90,24428,900.00
91,24452,910.00
92,24496,920.00
93,24540,930.00
94,24568,940.00
95,24572,950.00
96,24540,960.00
97,24484,970.00
98,24412,980.00
99,24340,990.00
100,24280,1000.00
101,24236,1010.00
102,24208,1020.00
103,24180,1030.00
104,24152,1040.00
105,24128,1050.00
106,24108,1060.00
107,24088,1070.00
108,24076,1080.00
109,24060,1090.00
110,24052,1100.00
111,24032,1110.00
112,24004,1120.00
113,23972,1130.00
114,23948,1140.00
115,23932,1150.00
116,23924,1160.00
117,23924,1170.00
118,23924,1180.00
119,23928,1190.00
120,23944,1200.00
121,23960,1210.00
122,23976,1220.00
123,23984,1230.00
124,23988,1240.00
125,23988,1250.00
126,23992,1260.00
127,23996,1270.00
128,24000,1280.00
129,24000,1290.00
130,24004,1300.00
131,24008,1310.00
132,24016,1320.00
133,24024,1330.00
134,24028,1340.00
135,24040,1350.00
136,24048,1360.00
137,24060,1370.00
138,24072,1380.00
139,24080,1390.00
140,24092,1400.00
141,24092,1410.00
142,24060,1420.00
143,23996,1430.00
144,23916,1440.00
145,23820,1450.00
146,23732,1460.00
147,23656,1470.00
148,23600,1480.00
149,23564,1490.00
150,23556,1500.00
151,23548,1510.00
152,23548,1520.00
153,23556,1530.00
154,23572,1540.00
155,23592,1550.00
156,23588,1560.00
157,23572,1570.00
158,23556,1580.00
159,23536,1590.00
160,23520,1600.00
161,23512,1610.00
162,23508,1620.00
163,23516,1630.00
164,23516,1640.00
165,23524,1650.00
166,23536,1660.00
167,23548,1670.00
168,23560,1680.00
169,23572,1690.00
170,23588,1700.00
171,23604,1710.00
172,23620,1720.00
173,23632,1730.00
174,23652,1740.00
175,23676,1750.00
176,23700,1760.00
177,23732,1770.00
178,23756,1780.00
179,23776,1790.00
180,23804,1800.00
181,23816,1810.00
182,23828,1820.00
183,23844,1830.00
184,23860,1840.00
185,23880,1850.00
186,23896,1860.00
187,23916,1870.00
188,23920,1880.00
189,23896,1890.00
190,23824,1900.00
191,23708,1910.00
192,23572,1920.00
193,23436,1930.00
194,23328,1940.00
195,23236,1950.00
196,23172,1960.00
197,23132,1970.00
198,23108,1980.00
199,23084,1990.00
200,23068,2000.00
201,23052,2010.00
202,23040,2020.00
203,23036,2030.00
204,23032,2040.00
205,23028,2050.00
206,23020,2060.00
207,23008,2070.00
208,23004,2080.00
209,23008,2090.00
210,23016,2100.00
211,23020,2110.00
212,23032,2120.00
213,23040,2130.00
214,23048,2140.00
215,23056,2150.00
216,23068,2160.00
217,23080,2170.00
218,23096,2180.00
219,23112,2190.00
220,23132,2200.00
221,23152,2210.00
222,23172,2220.00
223,23196,2230.00
224,23212,2240.00
225,23224,2250.00
226,23248,2260.00
227,23260,2270.00
228,23288,2280.00
229,23308,2290.00
230,23328,2300.00
231,23352,2310.00
232,23372,2320.00
233,23388,2330.00
234,23404,2340.00
235,23412,2350.00
236,23416,2360.00
237,23408,2370.00
238,23364,2380.00
239,23264,2390.00
240,23124,2400.00
241,22952,2410.00
242,22764,2420.00
243,22600,2430.00
244,22484,2440.00
245,22404,2450.00
246,22352,2460.00
247,22324,2470.00
248,22304,2480.00
249,22280,2490.00
250,22260,2500.00
251,22260,2510.00
252,22264,2520.00
253,22252,2530.00
254,22224,2540.00
255,22204,2550.00
256,22176,2560.00
257,22148,2570.00
258,22136,2580.00
259,22136,2590.00
260,22140,2600.00
261,22152,2610.00
262,22168,2620.00
263,22192,2630.00
264,22208,2640.00
265,22200,2650.00
266,22172,2660.00
267,22112,2670.00
268,22080,2680.00
269,22108,2690.00
270,22144,2700.00
271,22180,2710.00
272,22200,2720.00
273,22204,2730.00
274,22224,2740.00
275,22256,2750.00
276,22288,2760.00
277,22324,2770.00
278,22352,2780.00
279,22368,2790.00
280,22376,2800.00
281,22372,2810.00
282,22368,2820.00
283,22372,2830.00
284,22388,2840.00
285,22396,2850.00
286,22380,2860.00
287,22320,2870.00
288,22236,2880.00
289,22120,2890.00
290,22008,2900.00
291,21932,2910.00
292,21924,2920.00
293,21928,2930.00
294,21944,2940.00
295,21960,2950.00
296,21988,2960.00
297,22028,2970.00
298,22048,2980.00
299,22064,2990.00
300,22080,3000.00
301,22100,3010.00
302,22112,3020.00
303,22112,3030.00
304,22104,3040.00
305,22088,3050.00
306,22088,3060.00
307,22104,3070.00
308,22124,3080.00
309,22152,3090.00
310,22196,3100.00
311,22236,3110.00
312,22276,3120.00
313,22316,3130.00
314,22344,3140.00
315,22364,3150.00
316,22392,3160.00
317,22408,3170.00
318,22424,3180.00
319,22436,3190.00
320,22448,3200.00
321,22468,3210.00
322,22488,3220.00
323,22504,3230.00
324,22524,3240.00
325,22544,3250.00
326,22564,3260.00
327,22588,3270.00
328,22608,3280.00
329,22624,3290.00
330,22644,3300.00
331,22664,3310.00
332,22688,3320.00
333,22692,3330.00
334,22664,3340.00
335,22584,3350.00
336,22464,3360.00
337,22332,3370.00
338,22212,3380.00
339,22128,3390.00
340,22084,3400.00
341,22076,3410.00
342,22088,3420.00
343,22104,3430.00
344,22124,3440.00
345,22144,3450.00
346,22168,3460.00
347,22184,3470.00
348,22196,3480.00
349,22196,3490.00
350,22192,3500.00
351,22188,3510.00
352,22184,3520.00
353,22180,3530.00
354,22188,3540.00
355,22204,3550.00
356,22220,3560.00
357,22248,3570.00
358,22268,3580.00
359,22292,3590.00
360,22312,3600.00
361,22336,3610.00
362,22352,3620.00
363,22368,3630.00
364,22384,3640.00
365,22396,3650.00
366,22412,3660.00
367,22420,3670.00
368,22432,3680.00
369,22444,3690.00
370,22460,3700.00
371,22472,3710.00
372,22488,3720.00
373,22504,3730.00
374,22520,3740.00
375,22536,3750.00
376,22556,3760.00
377,22572,3770.00
378,22592,3780.00
379,22612,3790.00
380,22624,3800.00
381,22608,3810.00
382,22540,3820.00
383,22424,3830.00
384,22276,3840.00
385,22148,3850.00
386,22040,3860.00
387,21976,3870.00
388,21956,3880.00
389,21956,3890.00
390,21972,3900.00
391,21988,3910.00
392,22004,3920.00
393,22024,3930.00
394,22044,3940.00
395,22064,3950.00
396,22072,3960.00
397,22072,3970.00
398,22072,3980.00
399,22064,3990.00
400,22064,4000.00
401,22068,4010.00
402,22084,4020.00
403,22104,4030.00
404,22128,4040.00
405,22160,4050.00
406,22184,4060.00
407,22208,4070.00
408,22236,4080.00
409,22256,4090.00
410,22272,4100.00
411,22288,4110.00
412,22304,4120.00
413,22316,4130.00
414,22332,4140.00
415,22344,4150.00
416,22364,4160.00
417,22376,4170.00
418,22392,4180.00
419,22412,4190.00
420,22428,4200.00
421,22444,4210.00
422,22460,4220.00
423,22480,4230.00
424,22496,4240.00
425,22520,4250.00
426,22540,4260.00
427,22560,4270.00
428,22556,4280.00
429,22504,4290.00
430,22400,4300.00
431,22264,4310.00
432,22124,4320.00
433,22008,4330.00
434,21940,4340.00
435,21912,4350.00
436,21908,4360.00
437,21924,4370.00
438,21948,4380.00
439,21964,4390.00
440,21976,4400.00
441,22000,4410.00
442,22012,4420.00
443,22020,4430.00
444,22024,4440.00
445,22020,4450.00
446,22016,4460.00
447,22012,4470.00
448,22016,4480.00
449,22032,4490.00
450,22056,4500.00
451,22076,4510.00
452,22108,4520.00
453,22136,4530.00
454,22164,4540.00
455,22192,4550.00
456,22216,4560.00
457,22228,4570.00
458,22244,4580.00
459,22260,4590.00
460,22272,4600.00
461,22284,4610.00
462,22300,4620.00
463,22312,4630.00
464,22328,4640.00
465,22340,4650.00
466,22352,4660.00
467,22376,4670.00
468,22392,4680.00
469,22408,4690.00
470,22424,4700.00
471,22436,4710.00
472,22452,4720.00
473,22468,4730.00
474,22484,4740.00
475,22500,4750.00
476,22492,4760.00
477,22436,4770.00
478,22320,4780.00
479,22176,4790.00
480,22032,4800.00
481,21916,4810.00
482,21844,4820.00
483,21808,4830.00
484,21800,4840.00
485,21820,4850.00
486,21832,4860.00
487,21852,4870.00
488,21872,4880.00
489,21892,4890.00
490,21896,4900.00
491,21900,4910.00
492,21896,4920.00
493,21888,4930.00
494,21880,4940.00
495,21872,4950.00
496,21876,4960.00
497,21884,4970.00
498,21904,4980.00
499,21936,4990.00
500,21964,5000.00
501,21996,5010.00
502,22024,5020.00
503,22052,5030.00
504,22084,5040.00
505,22108,5050.00
506,22124,5060.00
507,22140,5070.00
508,22156,5080.00
509,22164,5090.00
510,22176,5100.00
511,22188,5110.00
512,22204,5120.00
513,22224,5130.00
514,22236,5140.00
515,22256,5150.00
516,22276,5160.00
517,22304,5170.00
518,22328,5180.00
519,22352,5190.00
520,22376,5200.00
521,22360,5210.00
522,22304,5220.00
523,22200,5230.00
524,22076,5240.00
525,21956,5250.00
526,21868,5260.00
527,21832,5270.00
528,21832,5280.00
529,21852,5290.00
530,21876,5300.00
531,21896,5310.00
532,21920,5320.00
533,21952,5330.00
534,21976,5340.00
535,21992,5350.00
536,22000,5360.00
537,22004,5370.00
538,22000,5380.00
539,21996,5390.00
540,22000,5400.00
541,22008,5410.00
542,22032,5420.00
543,22056,5430.00
544,22088,5440.00
545,22116,5450.00
546,22148,5460.00
547,22176,5470.00
548,22200,5480.00
549,22220,5490.00
550,22236,5500.00
551,22252,5510.00
552,22264,5520.00
553,22272,5530.00
554,22284,5540.00
555,22300,5550.00
556,22308,5560.00
557,22320,5570.00
558,22336,5580.00
559,22352,5590.00
560,22376,5600.00
561,22396,5610.00
562,22416,5620.00
563,22404,5630.00
564,22340,5640.00
565,22228,5650.00
566,22092,5660.00
567,21964,5670.00
568,21864,5680.00
569,21808,5690.00
570,21792,5700.00
571,21800,5710.00
572,21820,5720.00
573,21840,5730.00
574,21860,5740.00
575,21888,5750.00
576,21916,5760.00
577,21940,5770.00
578,21960,5780.00
579,21960,5790.00
580,21964,5800.00
581,21960,5810.00
582,21956,5820.00
583,21964,5830.00
584,21980,5840.00
585,22004,5850.00
586,22028,5860.00
587,22048,5870.00
588,22076,5880.00
589,22100,5890.00
590,22124,5900.00
591,22148,5910.00
592,22168,5920.00
593,22180,5930.00
594,22188,5940.00
595,22200,5950.00
596,22212,5960.00
597,22220,5970.00
598,22232,5980.00
599,22244,5990.00
600,22264,6000.00
601,22280,6010.00
602,22304,6020.00
603,22324,6030.00
604,22348,6040.00
605,22368,6050.00
606,22392,6060.00
607,22404,6070.00
608,22376,6080.00
609,22288,6090.00
610,22156,6100.00
611,22004,6110.00
612,21880,6120.00
613,21800,6130.00
614,21768,6140.00
615,21772,6150.00
616,21788,6160.00
617,21808,6170.00
618,21824,6180.00
619,21848,6190.00
620,21872,6200.00
621,21896,6210.00
622,21920,6220.00
623,21932,6230.00
624,21944,6240.00
625,21944,6250.00
626,21948,6260.00
627,21960,6270.00
628,21968,6280.00
629,21988,6290.00
630,22016,6300.00
631,22048,6310.00
632,22076,6320.00
633,22108,6330.00
634,22132,6340.00
635,22156,6350.00
636,22172,6360.00
637,22188,6370.00
638,22208,6380.00
639,22224,6390.00
640,22236,6400.00
641,22248,6410.00
642,22264,6420.00
643,22280,6430.00
644,22296,6440.00
645,22312,6450.00
646,22328,6460.00
647,22348,6470.00
648,22364,6480.00
649,22384,6490.00
650,22412,6500.00
651,22432,6510.00
652,22456,6520.00
653,22440,6530.00
654,22372,6540.00
655,22244,6550.00
656,22096,6560.00
657,21956,6570.00
658,21856,6580.00
659,21804,6590.00
660,21796,6600.00
661,21812,6610.00
662,21832,6620.00
663,21852,6630.00
664,21876,6640.00
665,21896,6650.00
666,21924,6660.00
667,21952,6670.00
668,21964,6680.00
669,21964,6690.00
670,21964,6700.00
671,21956,6710.00
672,21960,6720.00
673,21972,6730.00
674,21992,6740.00
675,22020,6750.00
676,22052,6760.00
677,22088,6770.00
678,22116,6780.00
679,22148,6790.00
680,22172,6800.00
681,22192,6810.00
682,22216,6820.00
683,22236,6830.00
684,22248,6840.00
685,22264,6850.00
686,22276,6860.00
687,22292,6870.00
688,22308,6880.00
689,22324,6890.00
690,22340,6900.00
691,22360,6910.00
692,22376,6920.00
693,22400,6930.00
694,22416,6940.00
695,22404,6950.00
696,22332,6960.00
697,22220,6970.00
698,22088,6980.00
699,21964,6990.00
700,21884,7000.00
701,21840,7010.00
702,21832,7020.00
703,21844,7030.00
704,21864,7040.00
705,21884,7050.00
706,21912,7060.00
707,21940,7070.00
708,21964,7080.00
709,21988,7090.00
710,21912,7100.00
711,21936,7110.00
712,21952,7120.00
713,21972,7130.00
714,22000,7140.00
715,22016,7150.00
716,22024,7160.00
717,22028,7170.00
718,22032,7180.00
719,22032,7190.00
720,22036,7200.00
721,22048,7210.00
722,22064,7220.00
723,22092,7230.00
724,22116,7240.00
725,22148,7250.00
726,22180,7260.00
727,22212,7270.00
728,22240,7280.00
729,22264,7290.00
730,22288,7300.00
731,22304,7310.00
732,22316,7320.00
733,22332,7330.00
734,22348,7340.00
735,22360,7350.00
736,22376,7360.00
737,22396,7370.00
738,22412,7380.00
739,22436,7390.00
740,22460,7400.00
741,22480,7410.00
742,22504,7420.00
743,22528,7430.00
744,22552,7440.00
745,22572,7450.00
746,22588,7460.00
747,22608,7470.00
748,22624,7480.00
749,22652,7490.00
750,22668,7500.00
751,22680,7510.00
752,22660,7520.00
753,22572,7530.00
754,22432,7540.00
755,22264,7550.00
756,22108,7560.00
757,21992,7570.00
758,21924,7580.00
759,21900,7590.00
760,21904,7600.00
761,21920,7610.00
762,21944,7620.00
763,21960,7630.00
764,21984,7640.00
765,22008,7650.00
766,22028,7660.00
767,22044,7670.00
768,22048,7680.00
769,22048,7690.00
770,22048,7700.00
771,22044,7710.00
772,22052,7720.00
773,22068,7730.00
774,22084,7740.00
775,22116,7750.00
776,22148,7760.00
777,22184,7770.00
778,22212,7780.00
779,22244,7790.00
780,22272,7800.00
781,22296,7810.00
782,22316,7820.00
783,22336,7830.00
784,22352,7840.00
785,22368,7850.00
786,22380,7860.00
787,22400,7870.00
788,22416,7880.00
789,22436,7890.00
790,22456,7900.00
791,22476,7910.00
792,22500,7920.00
793,22520,7930.00
794,22544,7940.00
795,22568,7950.00
796,22588,7960.00
797,22612,7970.00
798,22632,7980.00
799,22652,7990.00
800,22668,8000.00
801,22692,8010.00
802,22716,8020.00
803,22728,8030.00
804,22716,8040.00
805,22632,8050.00
806,22500,8060.00
807,22336,8070.00
808,22176,8080.00
809,22052,8090.00
810,21980,8100.00
811,21952,8110.00
812,21952,8120.00
813,21972,8130.00
814,21996,8140.00
815,22020,8150.00
816,22044,8160.00
817,22072,8170.00
818,22096,8180.00
819,22108,8190.00
820,22116,8200.00
821,22112,8210.00
822,22104,8220.00
823,22104,8230.00
824,22108,8240.00
825,22120,8250.00
826,22148,8260.00
827,22176,8270.00
828,22208,8280.00
829,22240,8290.00
830,22276,8300.00
831,22304,8310.00
832,22336,8320.00
833,22364,8330.00
834,22388,8340.00
835,22408,8350.00
836,22428,8360.00
837,22440,8370.00
838,22452,8380.00
839,22472,8390.00
840,22484,8400.00
841,22500,8410.00
842,22516,8420.00
843,22536,8430.00
844,22556,8440.00
845,22576,8450.00
846,22596,8460.00
847,22616,8470.00
848,22640,8480.00
849,22656,8490.00
850,22676,8500.00
851,22696,8510.00
852,22716,8520.00
853,22732,8530.00
854,22744,8540.00
855,22696,8550.00
856,22592,8560.00
857,22448,8570.00
858,22288,8580.00
859,22152,8590.00
860,22060,8600.00
861,22004,8610.00
862,21992,8620.00
863,22008,8630.00
864,22028,8640.00
865,22060,8650.00
866,22084,8660.00
867,22124,8670.00
868,22148,8680.00
869,22168,8690.00
870,22176,8700.00
871,22176,8710.00
872,22172,8720.00
873,22168,8730.00
874,22168,8740.00
875,22172,8750.00
876,22188,8760.00
877,22204,8770.00
878,22228,8780.00
879,22256,8790.00
880,22280,8800.00
881,22308,8810.00
882,22332,8820.00
883,22356,8830.00
884,22376,8840.00
885,22392,8850.00
886,22416,8860.00
887,22428,8870.00
888,22440,8880.00
889,22452,8890.00
890,22464,8900.00
891,22476,8910.00
892,22488,8920.00
893,22508,8930.00
894,22524,8940.00
895,22536,8950.00
896,22556,8960.00
897,22572,8970.00
898,22596,8980.00
899,22616,8990.00
900,22620,9000.00
901,22572,9010.00
902,22464,9020.00
903,22316,9030.00
904,22164,9040.00
905,22032,9050.00
906,21944,9060.00
907,21900,9070.00
908,21896,9080.00
909,21912,9090.00
910,21932,9100.00
911,21956,9110.00
912,21984,9120.00
913,22016,9130.00
914,22036,9140.00
915,22048,9150.00
916,22048,9160.00
917,22040,9170.00
918,22032,9180.00
919,22028,9190.00
920,22020,9200.00
921,22028,9210.00
922,22044,9220.00
923,22068,9230.00
924,22100,9240.00
925,22128,9250.00
926,22164,9260.00
927,22196,9270.00
928,22228,9280.00
929,22260,9290.00
930,22284,9300.00
931,22308,9310.00
932,22328,9320.00
933,22348,9330.00
934,22360,9340.00
935,22376,9350.00
936,22396,9360.00
937,22412,9370.00
938,22432,9380.00
939,22452,9390.00
940,22472,9400.00
941,22496,9410.00
942,22520,9420.00
943,22548,9430.00
944,22568,9440.00
945,22556,9450.00
946,22484,9460.00
947,22360,9470.00
948,22200,9480.00
949,22056,9490.00
950,21940,9500.00
951,21872,9510.00
952,21848,9520.00
953,21852,9530.00
954,21876,9540.00
955,21900,9550.00
956,21924,9560.00
957,21952,9570.00
958,21980,9580.00
959,22000,9590.00
960,22012,9600.00
961,22012,9610.00
962,22008,9620.00
963,22004,9630.00
964,22000,9640.00
965,22000,9650.00
966,22016,9660.00
967,22040,9670.00
968,22068,9680.00
969,22104,9690.00
970,22132,9700.00
971,22164,9710.00
972,22192,9720.00
973,22216,9730.00
974,22232,9740.00
975,22252,9750.00
976,22264,9760.00
977,22276,9770.00
978,22292,9780.00
979,22300,9790.00
980,22316,9800.00
981,22324,9810.00
982,22340,9820.00
983,22356,9830.00
984,22372,9840.00
985,22388,9850.00
986,22404,9860.00
987,22424,9870.00
988,22448,9880.00
989,22472,9890.00
990,22492,9900.00
991,22504,9910.00
992,22456,9920.00
993,22352,9930.00
994,22204,9940.00
995,22048,9950.00
996,21920,9960.00
997,21832,9970.00
998,21796,9980.00
999,21792,9990.00
1000,21808,10000.00
1001,21836,10010.00
1002,21868,10020.00
1003,21892,10030.00
1004,21924,10040.00
1005,21948,10050.00
1006,21964,10060.00
1007,21968,10070.00
1008,21968,10080.00
1009,21960,10090.00
1010,21952,10100.00
1011,21952,10110.00
1012,21960,10120.00
1013,21976,10130.00
1014,22000,10140.00
1015,22024,10150.00
1016,22052,10160.00
1017,22084,10170.00
1018,22116,10180.00
1019,22140,10190.00
1020,22168,10200.00
1021,22184,10210.00
1022,22200,10220.00
1023,22208,10230.00
1024,22224,10240.00
1025,22236,10250.00
1026,22252,10260.00
1027,22268,10270.00
1028,22280,10280.00
1029,22300,10290.00
1030,22320,10300.00
1031,22336,10310.00
1032,22356,10320.00
1033,22380,10330.00
1034,22396,10340.00
1035,22416,10350.00
1036,22440,10360.00
1037,22464,10370.00
1038,22476,10380.00
1039,22444,10390.00
1040,22352,10400.00
1041,22212,10410.00
1042,22056,10420.00
1043,21916,10430.00
1044,21824,10440.00
1045,21772,10450.00
1046,21760,10460.00
1047,21776,10470.00
1048,21800,10480.00
1049,21828,10490.00
1050,21856,10500.00
1051,21880,10510.00
1052,21908,10520.00
1053,21932,10530.00
1054,21936,10540.00
1055,21936,10550.00
1056,21928,10560.00
1057,21920,10570.00
1058,21924,10580.00
1059,21924,10590.00
1060,21944,10600.00
1061,21964,10610.00
1062,21992,10620.00
1063,22020,10630.00
1064,22052,10640.00
1065,22076,10650.00
1066,22100,10660.00
1067,22124,10670.00
1068,22144,10680.00
1069,22160,10690.00
1070,22176,10700.00
1071,22184,10710.00
1072,22196,10720.00
1073,22204,10730.00
1074,22220,10740.00
1075,22232,10750.00
1076,22240,10760.00
1077,22256,10770.00
1078,22276,10780.00
1079,22292,10790.00
1080,22308,10800.00
1081,22328,10810.00
1082,22352,10820.00
1083,22376,10830.00
1084,22388,10840.00
1085,22360,10850.00
1086,22276,10860.00
1087,22136,10870.00
1088,21984,10880.00
1089,21852,10890.00
1090,21760,10900.00
1091,21720,10910.00
1092,21716,10920.00
1093,21732,10930.00
1094,21760,10940.00
1095,21784,10950.00
1096,21816,10960.00
1097,21848,10970.00
1098,21872,10980.00
1099,21884,10990.00
1100,21884,11000.00
1101,21876,11010.00
1102,21860,11020.00
1103,21852,11030.00
1104,21848,11040.00
1105,21860,11050.00
1106,21884,11060.00
1107,21908,11070.00
1108,21936,11080.00
1109,21968,11090.00
1110,22000,11100.00
1111,22028,11110.00
1112,22056,11120.00
1113,22076,11130.00
1114,22092,11140.00
1115,22108,11150.00
1116,22116,11160.00
1117,22124,11170.00
1118,22136,11180.00
1119,22144,11190.00
1120,22156,11200.00
1121,22172,11210.00
1122,22184,11220.00
1123,22200,11230.00
1124,22220,11240.00
1125,22236,11250.00
1126,22260,11260.00
1127,22244,11270.00
1128,22180,11280.00
1129,22064,11290.00
1130,21928,11300.00
1131,21800,11310.00
1132,21704,11320.00
1133,21660,11330.00
1134,21652,11340.00
1135,21664,11350.00
1136,21696,11360.00
1137,21724,11370.00
1138,21756,11380.00
1139,21788,11390.00
1140,21816,11400.00
1141,21832,11410.00
1142,21836,11420.00
1143,21828,11430.00
1144,21820,11440.00
1145,21812,11450.00
1146,21812,11460.00
1147,21824,11470.00
1148,21840,11480.00
1149,21864,11490.00
1150,21896,11500.00
1151,21924,11510.00
1152,21948,11520.00
1153,21976,11530.00
1154,21996,11540.00
1155,22020,11550.00
1156,22036,11560.00
1157,22048,11570.00
1158,22060,11580.00
1159,22072,11590.00
1160,22080,11600.00
1161,22088,11610.00
1162,22096,11620.00
1163,22104,11630.00
1164,22120,11640.00
1165,22132,11650.00
1166,22144,11660.00
1167,22164,11670.00
1168,22184,11680.00
1169,22200,11690.00
1170,22200,11700.00
1171,22136,11710.00
1172,22020,11720.00
1173,21868,11730.00
1174,21716,11740.00
1175,21604,11750.00
1176,21540,11760.00
1177,21520,11770.00
1178,21524,11780.00
1179,21540,11790.00
1180,21552,11800.00
1181,21560,11810.00
1182,21580,11820.00
1183,21604,11830.00
1184,21628,11840.00
1185,21640,11850.00
1186,21652,11860.00
1187,21652,11870.00
1188,21652,11880.00
1189,21656,11890.00
1190,21660,11900.00
1191,21676,11910.00
1192,21696,11920.00
1193,21724,11930.00
1194,21756,11940.00
1195,21780,11950.00
1196,21812,11960.00
1197,21836,11970.00
1198,21860,11980.00
1199,21876,11990.00
1200,21896,12000.00
1201,21908,12010.00
1202,21924,12020.00
1203,21932,12030.00
1204,21944,12040.00
1205,21960,12050.00
1206,21968,12060.00
1207,21984,12070.00
1208,22000,12080.00
1209,22020,12090.00
1210,22036,12100.00
1211,22056,12110.00
1212,22072,12120.00
1213,22092,12130.00
1214,22120,12140.00
1215,22136,12150.00
1216,22128,12160.00
1217,22064,12170.00
1218,21944,12180.00
1219,21784,12190.00
1220,21636,12200.00
1221,21524,12210.00
1222,21468,12220.00
1223,21448,12230.00
1224,21456,12240.00
1225,21472,12250.00
1226,21484,12260.00
1227,21492,12270.00
1228,21504,12280.00
1229,21524,12290.00
1230,21544,12300.00
1231,21560,12310.00
1232,21572,12320.00
1233,21576,12330.00
1234,21576,12340.00
1235,21576,12350.00
1236,21580,12360.00
1237,21588,12370.00
1238,21600,12380.00
1239,21612,12390.00
1240,21632,12400.00
1241,21648,12410.00
1242,21664,12420.00
1243,21684,12430.00
1244,21700,12440.00
1245,21712,12450.00
1246,21732,12460.00
1247,21744,12470.00
1248,21756,12480.00
1249,21768,12490.00
1250,21780,12500.00
1251,21792,12510.00
1252,21808,12520.00
1253,21820,12530.00
1254,21824,12540.00
1255,21832,12550.00
1256,21836,12560.00
1257,21852,12570.00
1258,21868,12580.00
1259,21888,12590.00
1260,21912,12600.00
1261,21940,12610.00
1262,21968,12620.00
1263,22004,12630.00
1264,22032,12640.00
1265,22060,12650.00
1266,22044,12660.00
1267,21964,12670.00
1268,21828,12680.00
1269,21676,12690.00
1270,21532,12700.00
1271,21440,12710.00
1272,21392,12720.00
1273,21384,12730.00
1274,21400,12740.00
1275,21416,12750.00
1276,21432,12760.00
1277,21444,12770.00
1278,21472,12780.00
1279,21504,12790.00
1280,21528,12800.00
1281,21548,12810.00
1282,21560,12820.00
1283,21556,12830.00
1284,21556,12840.00
1285,21556,12850.00
1286,21560,12860.00
1287,21568,12870.00
1288,21584,12880.00
1289,21608,12890.00
1290,21636,12900.00
1291,21664,12910.00
1292,21688,12920.00
1293,21708,12930.00
1294,21728,12940.00
1295,21744,12950.00
1296,21756,12960.00
1297,21772,12970.00
1298,21780,12980.00
1299,21792,12990.00
1300,21800,13000.00
1301,21808,13010.00
1302,21820,13020.00
1303,21832,13030.00
1304,21848,13040.00
1305,21868,13050.00
1306,21884,13060.00
1307,21908,13070.00
1308,21924,13080.00
1309,21936,13090.00
1310,21908,13100.00
1311,21824,13110.00
1312,21700,13120.00
1313,21564,13130.00
1314,21444,13140.00
1315,21364,13150.00
1316,21332,13160.00
1317,21328,13170.00
1318,21344,13180.00
1319,21368,13190.00
1320,21392,13200.00
1321,21424,13210.00
1322,21460,13220.00
1323,21492,13230.00
1324,21516,13240.00
1325,21528,13250.00
1326,21524,13260.00
1327,21516,13270.00
1328,21512,13280.00
1329,21512,13290.00
1330,21524,13300.00
1331,21548,13310.00
1332,21572,13320.00
1333,21600,13330.00
1334,21628,13340.00
1335,21660,13350.00
1336,21684,13360.00
1337,21708,13370.00
1338,21732,13380.00
1339,21744,13390.00
1340,21764,13400.00
1341,21772,13410.00
1342,21784,13420.00
1343,21800,13430.00
1344,21812,13440.00
1345,21828,13450.00
1346,21840,13460.00
1347,21856,13470.00
1348,21872,13480.00
1349,21892,13490.00
1350,21912,13500.00
1351,21936,13510.00
1352,21960,13520.00
1353,21968,13530.00
1354,21932,13540.00
1355,21840,13550.00
1356,21700,13560.00
1357,21552,13570.00
1358,21428,13580.00
1359,21348,13590.00
1360,21316,13600.00
1361,21324,13610.00
1362,21344,13620.00
1363,21368,13630.00
1364,21396,13640.00
1365,21428,13650.00
1366,21460,13660.00
1367,21492,13670.00
1368,21512,13680.00
1369,21520,13690.00
1370,21524,13700.00
1371,21520,13710.00
1372,21520,13720.00
1373,21528,13730.00
1374,21540,13740.00
1375,21564,13750.00
1376,21588,13760.00
1377,21616,13770.00
1378,21648,13780.00
1379,21676,13790.00
1380,21704,13800.00
1381,21728,13810.00
1382,21752,13820.00
1383,21772,13830.00
1384,21788,13840.00
1385,21808,13850.00
1386,21820,13860.00
1387,21836,13870.00
1388,21848,13880.00
1389,21864,13890.00
1390,21876,13900.00
1391,21896,13910.00
1392,21916,13920.00
1393,21936,13930.00
1394,21956,13940.00
1395,21976,13950.00
1396,21996,13960.00
1397,22016,13970.00
1398,22040,13980.00
1399,22064,13990.00
1400,22080,14000.00
1401,22064,14010.00
1402,21984,14020.00
1403,21844,14030.00
1404,21680,14040.00
1405,21536,14050.00
1406,21428,14060.00
1407,21376,14070.00
1408,21368,14080.00
1409,21384,14090.00
1410,21412,14100.00
1411,21440,14110.00
1412,21464,14120.00
1413,21492,14130.00
1414,21524,14140.00
1415,21552,14150.00
1416,21572,14160.00
1417,21576,14170.00
1418,21576,14180.00
1419,21580,14190.00
1420,21576,14200.00
1421,21588,14210.00
1422,21604,14220.00
1423,21628,14230.00
1424,21656,14240.00
1425,21692,14250.00
1426,21720,14260.00
1427,21752,14270.00
1428,21780,14280.00
1429,21804,14290.00
1430,21824,14300.00
1431,21844,14310.00
1432,21860,14320.00
1433,21872,14330.00
1434,21884,14340.00
1435,21896,14350.00
1436,21912,14360.00
1437,21928,14370.00
1438,21944,14380.00
1439,21960,14390.00
1440,21980,14400.00
1441,21996,14410.00
1442,22020,14420.00
1443,22044,14430.00
1444,22060,14440.00
1445,22080,14450.00
1446,22096,14460.00
1447,22120,14470.00
1448,22144,14480.00
1449,22152,14490.00
1450,22140,14500.00
1451,22068,14510.00
1452,21932,14520.00
1453,21768,14530.00
1454,21600,14540.00
1455,21476,14550.00
1456,21412,14560.00
1457,21388,14570.00
1458,21400,14580.00
1459,21432,14590.00
1460,21464,14600.00
1461,21492,14610.00
1462,21524,14620.00
1463,21556,14630.00
1464,21576,14640.00
1465,21596,14650.00
1466,21604,14660.00
1467,21604,14670.00
1468,21600,14680.00
1469,21604,14690.00
1470,21612,14700.00
1471,21624,14710.00
1472,21656,14720.00
1473,21684,14730.00
1474,21720,14740.00
1475,21756,14750.00
1476,21788,14760.00
1477,21824,14770.00
1478,21852,14780.00
1479,21880,14790.00
1480,21900,14800.00
1481,21916,14810.00
1482,21936,14820.00
1483,21948,14830.00
1484,21968,14840.00
1485,21980,14850.00
1486,21996,14860.00
1487,22008,14870.00
1488,22028,14880.00
1489,22044,14890.00
1490,22060,14900.00
1491,22080,14910.00
1492,22100,14920.00
1493,22124,14930.00
1494,22144,14940.00
1495,22164,14950.00
1496,22184,14960.00
1497,22208,14970.00
1498,22232,14980.00
1499,22228,14990.00
1500,22176,15000.00
1501,22060,15010.00
1502,21900,15020.00
1503,21740,15030.00
1504,21600,15040.00
1505,21516,15050.00
1506,21484,15060.00
1507,21484,15070.00
1508,21508,15080.00
1509,21540,15090.00
1510,21572,15100.00
1511,21612,15110.00
1512,21648,15120.00
1513,21680,15130.00
1514,21700,15140.00
1515,21704,15150.00
1516,21700,15160.00
1517,21688,15170.00
1518,21684,15180.00
1519,21684,15190.00
1520,21696,15200.00
1521,21720,15210.00
1522,21748,15220.00
1523,21784,15230.00
1524,21816,15240.00
1525,21856,15250.00
1526,21888,15260.00
1527,21920,15270.00
1528,21944,15280.00
1529,21968,15290.00
1530,21988,15300.00
1531,22008,15310.00
1532,22024,15320.00
1533,22036,15330.00
1534,22052,15340.00
1535,22068,15350.00
1536,22084,15360.00
1537,22100,15370.00
1538,22120,15380.00
1539,22140,15390.00
1540,22160,15400.00
1541,22180,15410.00
1542,22200,15420.00
1543,22220,15430.00
1544,22244,15440.00
1545,22264,15450.00
1546,22256,15460.00
1547,22196,15470.00
1548,22072,15480.00
1549,21920,15490.00
1550,21772,15500.00
1551,21652,15510.00
1552,21584,15520.00
1553,21556,15530.00
1554,21572,15540.00
1555,21600,15550.00
1556,21640,15560.00
1557,21680,15570.00
1558,21724,15580.00
1559,21768,15590.00
1560,21792,15600.00
1561,21804,15610.00
1562,21804,15620.00
1563,21788,15630.00
1564,21772,15640.00
1565,21760,15650.00
1566,21764,15660.00
1567,21776,15670.00
1568,21800,15680.00
1569,21832,15690.00
1570,21864,15700.00
1571,21896,15710.00
1572,21932,15720.00
1573,21964,15730.00
1574,21996,15740.00
1575,22016,15750.00
1576,22040,15760.00
1577,22056,15770.00
1578,22072,15780.00
1579,22080,15790.00
1580,22092,15800.00
1581,22104,15810.00
1582,22112,15820.00
1583,22124,15830.00
1584,22140,15840.00
1585,22156,15850.00
1586,22172,15860.00
1587,22192,15870.00
1588,22212,15880.00
1589,22236,15890.00
1590,22260,15900.00
1591,22260,15910.00
1592,22212,15920.00
1593,22096,15930.00
1594,21932,15940.00
1595,21756,15950.00
1596,21608,15960.00
1597,21512,15970.00
1598,21468,15980.00
1599,21476,15990.00
1600,21496,16000.00
1601,21532,16010.00
1602,21564,16020.00
1603,21596,16030.00
1604,21636,16040.00
1605,21664,16050.00
1606,21680,16060.00
1607,21688,16070.00
1608,21680,16080.00
1609,21672,16090.00
1610,21660,16100.00
1611,21664,16110.00
1612,21672,16120.00
1613,21692,16130.00
1614,21724,16140.00
1615,21756,16150.00
1616,21796,16160.00
1617,21832,16170.00
1618,21864,16180.00
1619,21892,16190.00
1620,21920,16200.00
1621,21944,16210.00
1622,21964,16220.00
1623,21980,16230.00
1624,21992,16240.00
1625,22008,16250.00
1626,22024,16260.00
1627,22040,16270.00
1628,22056,16280.00
1629,22068,16290.00
1630,22088,16300.00
1631,22108,16310.00
1632,22132,16320.00
1633,22152,16330.00
1634,22176,16340.00
1635,22176,16350.00
1636,22112,16360.00
1637,21992,16370.00
1638,21824,16380.00
1639,21664,16390.00
1640,21544,16400.00
1641,21472,16410.00
1642,21448,16420.00
1643,21464,16430.00
1644,21496,16440.00
1645,21532,16450.00
1646,21568,16460.00
1647,21604,16470.00
1648,21636,16480.00
1649,21660,16490.00
1650,21680,16500.00
1651,21676,16510.00
1652,21672,16520.00
1653,21664,16530.00
1654,21656,16540.00
1655,21660,16550.00
1656,21672,16560.00
1657,21692,16570.00
1658,21724,16580.00
1659,21756,16590.00
1660,21788,16600.00
1661,21816,16610.00
1662,21844,16620.00
1663,21876,16630.00
1664,21896,16640.00
1665,21920,16650.00
1666,21932,16660.00
1667,21948,16670.00
1668,21964,16680.00
1669,21976,16690.00
1670,21992,16700.00
1671,22004,16710.00
1672,22020,16720.00
1673,22036,16730.00
1674,22052,16740.00
1675,22072,16750.00
1676,22092,16760.00
1677,22116,16770.00
1678,22140,16780.00
1679,22144,16790.00
1680,22096,16800.00
1681,21980,16810.00
1682,21828,16820.00
1683,21668,16830.00
1684,21540,16840.00
1685,21464,16850.00
1686,21440,16860.00
1687,21448,16870.00
1688,21472,16880.00
1689,21504,16890.00
1690,21536,16900.00
1691,21576,16910.00
1692,21608,16920.00
1693,21636,16930.00
1694,21652,16940.00
1695,21648,16950.00
1696,21640,16960.00
1697,21628,16970.00
1698,21624,16980.00
1699,21624,16990.00
1700,21636,17000.00
1701,21656,17010.00
1702,21680,17020.00
1703,21716,17030.00
1704,21748,17040.00
1705,21776,17050.00
1706,21808,17060.00
1707,21828,17070.00
1708,21852,17080.00
1709,21864,17090.00
1710,21876,17100.00
1711,21888,17110.00
1712,21896,17120.00
1713,21904,17130.00
1714,21916,17140.00
1715,21924,17150.00
1716,21932,17160.00
1717,21944,17170.00
1718,21956,17180.00
1719,21972,17190.00
1720,21992,17200.00
1721,22016,17210.00
1722,22028,17220.00
1723,22012,17230.00
1724,21932,17240.00
1725,21800,17250.00
1726,21648,17260.00
1727,21516,17270.00
1728,21436,17280.00
1729,21396,17290.00
1730,21396,17300.00
1731,21428,17310.00
1732,21460,17320.00
1733,21500,17330.00
1734,21540,17340.00
1735,21584,17350.00
1736,21612,17360.00
1737,21632,17370.00
1738,21624,17380.00
1739,21616,17390.00
1740,21608,17400.00
1741,21600,17410.00
1742,21608,17420.00
1743,21616,17430.00
1744,21636,17440.00
1745,21668,17450.00
1746,21700,17460.00
1747,21732,17470.00
1748,21764,17480.00
1749,21792,17490.00
1750,21816,17500.00
1751,21836,17510.00
1752,21852,17520.00
1753,21868,17530.00
1754,21872,17540.00
1755,21880,17550.00
1756,21884,17560.00
1757,21896,17570.00
1758,21904,17580.00
1759,21916,17590.00
1760,21932,17600.00
1761,21944,17610.00
1762,21960,17620.00
1763,21976,17630.00
1764,21996,17640.00
1765,22012,17650.00
1766,22036,17660.00
1767,22048,17670.00
1768,22024,17680.00
1769,21940,17690.00
1770,21784,17700.00
1771,21612,17710.00
1772,21464,17720.00
1773,21368,17730.00
1774,21332,17740.00
1775,21332,17750.00
1776,21360,17760.00
1777,21388,17770.00
1778,21412,17780.00
1779,21440,17790.00
1780,21468,17800.00
1781,21496,17810.00
1782,21516,17820.00
1783,21524,17830.00
1784,21524,17840.00
1785,21516,17850.00
1786,21516,17860.00
1787,21520,17870.00
1788,21532,17880.00
1789,21556,17890.00
1790,21584,17900.00
1791,21616,17910.00
1792,21644,17920.00
1793,21676,17930.00
1794,21704,17940.00
1795,21728,17950.00
1796,21744,17960.00
1797,21764,17970.00
1798,21780,17980.00
1799,21792,17990.00
1800,21800,18000.00
1801,21808,18010.00
1802,21824,18020.00
1803,21840,18030.00
1804,21852,18040.00
1805,21868,18050.00
1806,21888,18060.00
1807,21908,18070.00
1808,21932,18080.00
1809,21948,18090.00
1810,21964,18100.00
1811,21980,18110.00
1812,22000,18120.00
1813,22020,18130.00
1814,22036,18140.00
1815,22028,18150.00
1816,21956,18160.00
1817,21816,18170.00
1818,21640,18180.00
1819,21480,18190.00
1820,21368,18200.00
1821,21312,18210.00
1822,21304,18220.00
1823,21324,18230.00
1824,21352,18240.00
1825,21372,18250.00
1826,21392,18260.00
1827,21416,18270.00
1828,21444,18280.00
1829,21468,18290.00
1830,21480,18300.00
1831,21488,18310.00
1832,21488,18320.00
1833,21484,18330.00
1834,21488,18340.00
1835,21500,18350.00
1836,21520,18360.00
1837,21544,18370.00
1838,21576,18380.00
1839,21608,18390.00
1840,21640,18400.00
1841,21668,18410.00
1842,21696,18420.00
1843,21716,18430.00
1844,21736,18440.00
1845,21752,18450.00
1846,21760,18460.00
1847,21776,18470.00
1848,21784,18480.00
1849,21792,18490.00
1850,21804,18500.00
1851,21820,18510.00
1852,21832,18520.00
1853,21848,18530.00
1854,21864,18540.00
1855,21880,18550.00
1856,21900,18560.00
1857,21920,18570.00
1858,21936,18580.00
1859,21956,18590.00
1860,21976,18600.00
1861,21996,18610.00
1862,22016,18620.00
1863,22028,18630.00
1864,21996,18640.00
1865,21896,18650.00
1866,21744,18660.00
1867,21572,18670.00
1868,21432,18680.00
1869,21340,18690.00
1870,21304,18700.00
1871,21308,18710.00
1872,21328,18720.00
1873,21356,18730.00
1874,21376,18740.00
1875,21400,18750.00
1876,21432,18760.00
1877,21456,18770.00
1878,21476,18780.00
1879,21484,18790.00
1880,21484,18800.00
1881,21480,18810.00
1882,21476,18820.00
1883,21476,18830.00
1884,21488,18840.00
1885,21508,18850.00
1886,21536,18860.00
1887,21568,18870.00
1888,21600,18880.00
1889,21636,18890.00
1890,21660,18900.00
1891,21684,18910.00
1892,21708,18920.00
1893,21720,18930.00
1894,21732,18940.00
1895,21740,18950.00
1896,21748,18960.00
1897,21756,18970.00
1898,21768,18980.00
1899,21780,18990.00
1900,21796,19000.00
1901,21812,19010.00
1902,21828,19020.00
1903,21848,19030.00
1904,21868,19040.00
1905,21884,19050.00
1906,21904,19060.00
1907,21920,19070.00
1908,21936,19080.00
1909,21956,19090.00
1910,21972,19100.00
1911,21976,19110.00
1912,21924,19120.00
1913,21812,19130.00
1914,21656,19140.00
1915,21504,19150.00
1916,21392,19160.00
1917,21336,19170.00
1918,21320,19180.00
1919,21340,19190.00
1920,21372,19200.00
1921,21400,19210.00
1922,21428,19220.00
1923,21464,19230.00
1924,21492,19240.00
1925,21512,19250.00
1926,21520,19260.00
1927,21516,19270.00
1928,21504,19280.00
1929,21492,19290.00
1930,21492,19300.00
1931,21500,19310.00
1932,21516,19320.00
1933,21544,19330.00
1934,21580,19340.00
1935,21612,19350.00
1936,21640,19360.00
1937,21672,19370.00
1938,21692,19380.00
1939,21716,19390.00
1940,21736,19400.00
1941,21744,19410.00
1942,21760,19420.00
1943,21768,19430.00
1944,21780,19440.00
1945,21788,19450.00
1946,21800,19460.00
1947,21820,19470.00
1948,21832,19480.00
1949,21852,19490.00
1950,21868,19500.00
1951,21884,19510.00
1952,21908,19520.00
1953,21920,19530.00
1954,21940,19540.00
1955,21956,19550.00
1956,21976,19560.00
1957,22000,19570.00
1958,22016,19580.00
1959,22012,19590.00
1960,21952,19600.00
1961,21820,19610.00
1962,21652,19620.00
1963,21488,19630.00
1964,21364,19640.00
1965,21304,19650.00
1966,21288,19660.00
1967,21300,19670.00
1968,21324,19680.00
1969,21348,19690.00
1970,21368,19700.00
1971,21388,19710.00
1972,21412,19720.00
1973,21436,19730.00
1974,21452,19740.00
1975,21460,19750.00
1976,21460,19760.00
1977,21456,19770.00
1978,21456,19780.00
1979,21464,19790.00
1980,21480,19800.00
1981,21504,19810.00
1982,21528,19820.00
1983,21564,19830.00
1984,21592,19840.00
1985,21624,19850.00
1986,21644,19860.00
1987,21668,19870.00
1988,21692,19880.00
1989,21700,19890.00
1990,21716,19900.00
1991,21720,19910.00
1992,21728,19920.00
1993,21740,19930.00
1994,21752,19940.00
1995,21764,19950.00
1996,21784,19960.00
1997,21800,19970.00
1998,21824,19980.00
1999,21844,19990.00
2000,21860,20000.00
2001,21880,20010.00
2002,21904,20020.00
2003,21920,20030.00
2004,21940,20040.00
2005,21956,20050.00
2006,21972,20060.00
2007,21988,20070.00
2008,22008,20080.00
2009,22020,20090.00
2010,22004,20100.00
2011,21916,20110.00
2012,21768,20120.00
2013,21596,20130.00
2014,21436,20140.00
2015,21328,20150.00
2016,21276,20160.00
2017,21272,20170.00
2018,21288,20180.00
2019,21312,20190.00
2020,21328,20200.00
2021,21340,20210.00
2022,21360,20220.00
2023,21384,20230.00
2024,21408,20240.00
2025,21428,20250.00
2026,21436,20260.00
2027,21440,20270.00
2028,21440,20280.00
2029,21444,20290.00
2030,21448,20300.00
2031,21468,20310.00
2032,21492,20320.00
2033,21520,20330.00
2034,21548,20340.00
2035,21576,20350.00
2036,21604,20360.00
2037,21628,20370.00
2038,21648,20380.00
2039,21668,20390.00
2040,21680,20400.00
2041,21692,20410.00
2042,21704,20420.00
2043,21720,20430.00
2044,21728,20440.00
2045,21744,20450.00
2046,21756,20460.00
2047,21768,20470.00
2048,21788,20480.00
2049,21804,20490.00
2050,21824,20500.00
2051,21844,20510.00
2052,21864,20520.00
2053,21884,20530.00
2054,21900,20540.00
2055,21920,20550.00
2056,21936,20560.00
2057,21952,20570.00
2058,21972,20580.00
2059,21992,20590.00
2060,22008,20600.00
2061,22024,20610.00
2062,22000,20620.00
2063,21916,20630.00
2064,21768,20640.00
2065,21592,20650.00
2066,21432,20660.00
2067,21328,20670.00
2068,21276,20680.00
2069,21268,20690.00
2070,21288,20700.00
2071,21316,20710.00
2072,21340,20720.00
2073,21356,20730.00
2074,21376,20740.00
2075,21404,20750.00
2076,21424,20760.00
2077,21444,20770.00
2078,21448,20780.00
2079,21448,20790.00
2080,21448,20800.00
2081,21448,20810.00
2082,21460,20820.00
2083,21476,20830.00
2084,21500,20840.00
2085,21528,20850.00
2086,21560,20860.00
2087,21592,20870.00
2088,21624,20880.00
2089,21644,20890.00
2090,21664,20900.00
2091,21684,20910.00
2092,21696,20920.00
2093,21708,20930.00
2094,21720,20940.00
2095,21732,20950.00
2096,21744,20960.00
2097,21756,20970.00
2098,21768,20980.00
2099,21784,20990.00
2100,21796,21000.00
2101,21812,21010.00
2102,21832,21020.00
2103,21852,21030.00
2104,21872,21040.00
2105,21888,21050.00
2106,21908,21060.00
2107,21928,21070.00
2108,21944,21080.00
2109,21960,21090.00
2110,21976,21100.00
2111,21996,21110.00
2112,22020,21120.00
2113,22036,21130.00
2114,22044,21140.00
2115,22000,21150.00
2116,21892,21160.00
2117,21736,21170.00
2118,21576,21180.00
2119,21440,21190.00
2120,21356,21200.00
2121,21324,21210.00
2122,21332,21220.00
2123,21364,21230.00
2124,21400,21240.00
2125,21432,21250.00
2126,21464,21260.00
2127,21504,21270.00
2128,21528,21280.00
2129,21544,21290.00
2130,21548,21300.00
2131,21540,21310.00
2132,21528,21320.00
2133,21520,21330.00
2134,21524,21340.00
2135,21536,21350.00
2136,21560,21360.00
2137,21588,21370.00
2138,21620,21380.00
2139,21652,21390.00
2140,21684,21400.00
2141,21716,21410.00
2142,21740,21420.00
2143,21760,21430.00
2144,21776,21440.00
2145,21784,21450.00
2146,21796,21460.00
2147,21796,21470.00
2148,21804,21480.00
2149,21816,21490.00
2150,21824,21500.00
2151,21840,21510.00
2152,21856,21520.00
2153,21872,21530.00
2154,21896,21540.00
2155,21912,21550.00
2156,21936,21560.00
2157,21952,21570.00
2158,21972,21580.00
2159,21988,21590.00
2160,22008,21600.00
2161,22032,21610.00
2162,22052,21620.00
2163,22060,21630.00
2164,22016,21640.00
2165,21904,21650.00
2166,21744,21660.00
2167,21576,21670.00
2168,21432,21680.00
2169,21344,21690.00
2170,21308,21700.00
2171,21316,21710.00
2172,21348,21720.00
2173,21376,21730.00
2174,21408,21740.00
2175,21432,21750.00
2176,21464,21760.00
2177,21492,21770.00
2178,21512,21780.00
2179,21524,21790.00
2180,21524,21800.00
2181,21524,21810.00
2182,21520,21820.00
2183,21528,21830.00
2184,21536,21840.00
2185,21556,21850.00
2186,21584,21860.00
2187,21616,21870.00
2188,21644,21880.00
2189,21684,21890.00
2190,21712,21900.00
2191,21744,21910.00
2192,21768,21920.00
2193,21788,21930.00
2194,21808,21940.00
2195,21824,21950.00
2196,21832,21960.00
2197,21844,21970.00
2198,21856,21980.00
2199,21868,21990.00
2200,21884,22000.00
2201,21900,22010.00
2202,21908,22020.00
2203,21932,22030.00
2204,21952,22040.00
2205,21968,22050.00
2206,21992,22060.00
2207,22012,22070.00
2208,22032,22080.00
2209,22052,22090.00
2210,22076,22100.00
2211,22092,22110.00
2212,22088,22120.00
2213,22020,22130.00
2214,21876,22140.00
2215,21700,22150.00
2216,21532,22160.00
2217,21396,22170.00
2218,21324,22180.00
2219,21300,22190.00
2220,21316,22200.00
2221,21344,22210.00
2222,21372,22220.00
2223,21392,22230.00
2224,21420,22240.00
2225,21448,22250.00
2226,21476,22260.00
2227,21488,22270.00
2228,21496,22280.00
2229,21500,22290.00
2230,21500,22300.00
2231,21496,22310.00
2232,21500,22320.00
2233,21508,22330.00
2234,21528,22340.00
2235,21556,22350.00
2236,21588,22360.00
2237,21624,22370.00
2238,21656,22380.00
2239,21684,22390.00
2240,21716,22400.00
2241,21740,22410.00
2242,21764,22420.00
2243,21772,22430.00
2244,21792,22440.00
2245,21804,22450.00
2246,21820,22460.00
2247,21832,22470.00
2248,21848,22480.00
2249,21864,22490.00
2250,21884,22500.00
2251,21904,22510.00
2252,21928,22520.00
2253,21952,22530.00
2254,21976,22540.00
2255,21996,22550.00
2256,22016,22560.00
2257,22032,22570.00
2258,22052,22580.00
2259,22068,22590.00
2260,22076,22600.00
2261,22028,22610.00
2262,21908,22620.00
2263,21744,22630.00
2264,21576,22640.00
2265,21428,22650.00
2266,21340,22660.00
2267,21300,22670.00
2268,21300,22680.00
2269,21320,22690.00
2270,21348,22700.00
2271,21380,22710.00
2272,21408,22720.00
2273,21440,22730.00
2274,21476,22740.00
2275,21496,22750.00
2276,21508,22760.00
2277,21504,22770.00
2278,21496,22780.00
2279,21488,22790.00
2280,21488,22800.00
2281,21492,22810.00
2282,21512,22820.00
2283,21540,22830.00
2284,21572,22840.00
2285,21608,22850.00
2286,21648,22860.00
2287,21684,22870.00
2288,21716,22880.00
2289,21744,22890.00
2290,21764,22900.00
2291,21780,22910.00
2292,21788,22920.00
2293,21804,22930.00
2294,21812,22940.00
2295,21824,22950.00
2296,21844,22960.00
2297,21856,22970.00
2298,21876,22980.00
2299,21888,22990.00
2300,21912,23000.00
2301,21932,23010.00
2302,21956,23020.00
2303,21976,23030.00
2304,21996,23040.00
2305,22020,23050.00
2306,22028,23060.00
2307,21976,23070.00
2308,21864,23080.00
2309,21716,23090.00
2310,21560,23100.00
2311,21440,23110.00
2312,21372,23120.00
2313,21348,23130.00
2314,21360,23140.00
2315,21392,23150.00
2316,21428,23160.00
2317,21464,23170.00
2318,21500,23180.00
2319,21536,23190.00
2320,21560,23200.00
2321,21572,23210.00
2322,21568,23220.00
2323,21552,23230.00
2324,21536,23240.00
2325,21520,23250.00
2326,21520,23260.00
2327,21532,23270.00
2328,21552,23280.00
2329,21576,23290.00
2330,21608,23300.00
2331,21636,23310.00
2332,21664,23320.00
2333,21684,23330.00
2334,21708,23340.00
2335,21732,23350.00
2336,21748,23360.00
2337,21764,23370.00
2338,21780,23380.00
2339,21792,23390.00
2340,21808,23400.00
2341,21816,23410.00
2342,21828,23420.00
2343,21848,23430.00
2344,21860,23440.00
2345,21872,23450.00
2346,21896,23460.00
2347,21912,23470.00
2348,21932,23480.00
2349,21936,23490.00
2350,21888,23500.00
2351,21768,23510.00
2352,21604,23520.00
2353,21432,23530.00
2354,21292,23540.00
2355,21204,23550.00
2356,21168,23560.00
2357,21172,23570.00
2358,21188,23580.00
2359,21220,23590.00
2360,21244,23600.00
2361,21268,23610.00
2362,21300,23620.00
2363,21324,23630.00
2364,21348,23640.00
2365,21356,23650.00
2366,21356,23660.00
2367,21352,23670.00
2368,21344,23680.00
2369,21348,23690.00
2370,21356,23700.00
2371,21380,23710.00
2372,21404,23720.00
2373,21444,23730.00
2374,21476,23740.00
2375,21512,23750.00
2376,21544,23760.00
2377,21576,23770.00
2378,21600,23780.00
2379,21620,23790.00
2380,21636,23800.00
2381,21648,23810.00
2382,21664,23820.00
2383,21680,23830.00
2384,21696,23840.00
2385,21712,23850.00
2386,21736,23860.00
2387,21764,23870.00
2388,21792,23880.00
2389,21820,23890.00
2390,21848,23900.00
2391,21852,23910.00
2392,21784,23920.00
2393,21656,23930.00
2394,21500,23940.00
2395,21344,23950.00
2396,21244,23960.00
2397,21192,23970.00
2398,21192,23980.00
2399,21212,23990.00
2400,21248,24000.00
2401,21276,24010.00
2402,21308,24020.00
2403,21348,24030.00
2404,21384,24040.00
2405,21412,24050.00
2406,21428,24060.00
2407,21432,24070.00
2408,21432,24080.00
2409,21432,24090.00
2410,21432,24100.00
2411,21444,24110.00
2412,21464,24120.00
2413,21496,24130.00
2414,21540,24140.00
2415,21584,24150.00
2416,21624,24160.00
2417,21660,24170.00
2418,21688,24180.00
2419,21716,24190.00
2420,21740,24200.00
2421,21760,24210.00
2422,21772,24220.00
2423,21780,24230.00
2424,21800,24240.00
2425,21820,24250.00
2426,21836,24260.00
2427,21852,24270.00
2428,21864,24280.00
2429,21888,24290.00
2430,21908,24300.00
2431,21916,24310.00
2432,21884,24320.00
2433,21768,24330.00
2434,21612,24340.00
2435,21452,24350.00
2436,21332,24360.00
2437,21264,24370.00
2438,21252,24380.00
2439,21272,24390.00
2440,21304,24400.00
2441,21348,24410.00
2442,21400,24420.00
2443,21456,24430.00
2444,21512,24440.00
2445,21552,24450.00
2446,21572,24460.00
2447,21580,24470.00
2448,21576,24480.00
2449,21568,24490.00
2450,21572,24500.00
2451,21580,24510.00
2452,21604,24520.00
2453,21640,24530.00
2454,21688,24540.00
2455,21740,24550.00
2456,21788,24560.00
2457,21836,24570.00
2458,21880,24580.00
2459,21912,24590.00
2460,21940,24600.00
2461,21964,24610.00
2462,21984,24620.00
2463,22000,24630.00
2464,22016,24640.00
2465,22032,24650.00
2466,22044,24660.00
2467,22060,24670.00
2468,22080,24680.00
2469,22100,24690.00
2470,22116,24700.00
2471,22136,24710.00
2472,22152,24720.00
2473,22180,24730.00
2474,22204,24740.00
2475,22216,24750.00
2476,22184,24760.00
2477,22080,24770.00
2478,21924,24780.00
2479,21752,24790.00
2480,21604,24800.00
2481,21500,24810.00
2482,21452,24820.00
2483,21444,24830.00
2484,21456,24840.00
2485,21476,24850.00
2486,21500,24860.00
2487,21524,24870.00
2488,21552,24880.00
2489,21572,24890.00
2490,21576,24900.00
2491,21572,24910.00
2492,21556,24920.00
2493,21536,24930.00
2494,21524,24940.00
2495,21516,24950.00
2496,21524,24960.00
2497,21548,24970.00
2498,21572,24980.00
2499,21608,24990.00
2500,21648,25000.00
2501,21688,25010.00
2502,21716,25020.00
2503,21748,25030.00
2504,21772,25040.00
2505,21796,25050.00
2506,21816,25060.00
2507,21832,25070.00
2508,21844,25080.00
2509,21848,25090.00
2510,21860,25100.00
2511,21876,25110.00
2512,21892,25120.00
2513,21908,25130.00
2514,21932,25140.00
2515,21944,25150.00
2516,21916,25160.00
2517,21832,25170.00
2518,21692,25180.00
2519,21536,25190.00
2520,21404,25200.00
2521,21316,25210.00
2522,21280,25220.00
2523,21292,25230.00
2524,21324,25240.00
2525,21364,25250.00
2526,21412,25260.00
2527,21460,25270.00
2528,21508,25280.00
2529,21544,25290.00
2530,21564,25300.00
2531,21572,25310.00
2532,21568,25320.00
2533,21552,25330.00
2534,21544,25340.00
2535,21544,25350.00
2536,21560,25360.00
2537,21584,25370.00
2538,21616,25380.00
2539,21652,25390.00
2540,21688,25400.00
2541,21728,25410.00
2542,21760,25420.00
2543,21788,25430.00
2544,21816,25440.00
2545,21836,25450.00
2546,21852,25460.00
2547,21868,25470.00
2548,21880,25480.00
2549,21892,25490.00
2550,21912,25500.00
2551,21928,25510.00
2552,21944,25520.00
2553,21940,25530.00
2554,21880,25540.00
2555,21756,25550.00
2556,21604,25560.00
2557,21460,25570.00
2558,21360,25580.00
2559,21308,25590.00
2560,21312,25600.00
2561,21348,25610.00
2562,21392,25620.00
2563,21440,25630.00
2564,21488,25640.00
2565,21540,25650.00
2566,21580,25660.00
2567,21604,25670.00
2568,21612,25680.00
2569,21604,25690.00
2570,21588,25700.00
2571,21576,25710.00
2572,21572,25720.00
2573,21576,25730.00
2574,21596,25740.00
2575,21624,25750.00
2576,21660,25760.00
2577,21700,25770.00
2578,21740,25780.00
2579,21776,25790.00
2580,21808,25800.00
2581,21836,25810.00
2582,21864,25820.00
2583,21884,25830.00
2584,21900,25840.00
2585,21916,25850.00
2586,21936,25860.00
2587,21956,25870.00
2588,21968,25880.00
2589,21960,25890.00
2590,21884,25900.00
2591,21748,25910.00
2592,21596,25920.00
2593,21456,25930.00
2594,21368,25940.00
2595,21328,25950.00
2596,21340,25960.00
2597,21376,25970.00
2598,21432,25980.00
2599,21492,25990.00
2600,21552,26000.00
2601,21604,26010.00
2602,21648,26020.00
2603,21672,26030.00
2604,21672,26040.00
2605,21656,26050.00
2606,21636,26060.00
2607,21624,26070.00
2608,21620,26080.00
2609,21632,26090.00
2610,21648,26100.00
2611,21676,26110.00
2612,21712,26120.00
2613,21748,26130.00
2614,21784,26140.00
2615,21820,26150.00
2616,21852,26160.00
2617,21876,26170.00
2618,21904,26180.00
2619,21924,26190.00
2620,21940,26200.00
2621,21960,26210.00
2622,21976,26220.00
2623,21996,26230.00
2624,22000,26240.00
2625,21960,26250.00
2626,21852,26260.00
2627,21708,26270.00
2628,21552,26280.00
2629,21436,26290.00
2630,21372,26300.00
2631,21360,26310.00
2632,21392,26320.00
2633,21436,26330.00
2634,21500,26340.00
2635,21560,26350.00
2636,21628,26360.00
2637,21680,26370.00
2638,21712,26380.00
2639,21724,26390.00
2640,21716,26400.00
2641,21696,26410.00
2642,21680,26420.00
2643,21668,26430.00
2644,21672,26440.00
2645,21688,26450.00
2646,21716,26460.00
2647,21756,26470.00
2648,21792,26480.00
2649,21832,26490.00
2650,21868,26500.00
2651,21904,26510.00
2652,21940,26520.00
2653,21968,26530.00
2654,21992,26540.00
2655,22016,26550.00
2656,22036,26560.00
2657,22056,26570.00
2658,22072,26580.00
2659,22092,26590.00
2660,22112,26600.00
2661,22132,26610.00
2662,22152,26620.00
2663,22152,26630.00
2664,22096,26640.00
2665,21972,26650.00
2666,21820,26660.00
2667,21660,26670.00
2668,21540,26680.00
2669,21476,26690.00
2670,21468,26700.00
2671,21496,26710.00
2672,21540,26720.00
2673,21596,26730.00
2674,21656,26740.00
2675,21720,26750.00
2676,21768,26760.00
2677,21796,26770.00
2678,21800,26780.00
2679,21788,26790.00
2680,21768,26800.00
2681,21744,26810.00
2682,21736,26820.00
2683,21740,26830.00
2684,21752,26840.00
2685,21780,26850.00
2686,21816,26860.00
2687,21852,26870.00
2688,21892,26880.00
2689,21928,26890.00
2690,21964,26900.00
2691,22000,26910.00
2692,22028,26920.00
2693,22056,26930.00
2694,22076,26940.00
2695,22096,26950.00
2696,22116,26960.00
2697,22132,26970.00
2698,22144,26980.00
2699,22164,26990.00
2700,22180,27000.00
2701,22200,27010.00
2702,22228,27020.00
2703,22244,27030.00
2704,22220,27040.00
2705,22132,27050.00
2706,21988,27060.00
2707,21832,27070.00
2708,21692,27080.00
2709,21592,27090.00
2710,21548,27100.00
2711,21552,27110.00
2712,21588,27120.00
2713,21640,27130.00
2714,21696,27140.00
2715,21764,27150.00
2716,21820,27160.00
2717,21864,27170.00
2718,21884,27180.00
2719,21876,27190.00
2720,21860,27200.00
2721,21836,27210.00
2722,21820,27220.00
2723,21816,27230.00
2724,21820,27240.00
2725,21844,27250.00
2726,21868,27260.00
2727,21900,27270.00
2728,21936,27280.00
2729,21972,27290.00
2730,22008,27300.00
2731,22040,27310.00
2732,22064,27320.00
2733,22096,27330.00
2734,22116,27340.00
2735,22140,27350.00
2736,22156,27360.00
2737,22172,27370.00
2738,22188,27380.00
2739,22200,27390.00
2740,22216,27400.00
2741,22228,27410.00
2742,22248,27420.00
2743,22272,27430.00
2744,22276,27440.00
2745,22228,27450.00
2746,22116,27460.00
2747,21964,27470.00
2748,21804,27480.00
2749,21672,27490.00
2750,21584,27500.00
2751,21552,27510.00
2752,21564,27520.00
2753,21600,27530.00
2754,21652,27540.00
2755,21712,27550.00
2756,21780,27560.00
2757,21832,27570.00
2758,21864,27580.00
2759,21872,27590.00
2760,21860,27600.00
2761,21836,27610.00
2762,21812,27620.00
2763,21792,27630.00
2764,21788,27640.00
2765,21800,27650.00
2766,21820,27660.00
2767,21852,27670.00
2768,21888,27680.00
2769,21928,27690.00
2770,21960,27700.00
2771,21996,27710.00
2772,22028,27720.00
2773,22056,27730.00
2774,22080,27740.00
2775,22096,27750.00
2776,22108,27760.00
2777,22124,27770.00
2778,22136,27780.00
2779,22148,27790.00
2780,22164,27800.00
2781,22188,27810.00
2782,22200,27820.00
2783,22188,27830.00
2784,22112,27840.00
2785,21980,27850.00
2786,21824,27860.00
2787,21684,27870.00
2788,21584,27880.00
2789,21528,27890.00
2790,21528,27900.00
2791,21560,27910.00
2792,21604,27920.00
2793,21668,27930.00
2794,21736,27940.00
2795,21804,27950.00
2796,21844,27960.00
2797,21868,27970.00
2798,21872,27980.00
2799,21852,27990.00
2800,21824,28000.00
2801,21800,28010.00
2802,21784,28020.00
2803,21788,28030.00
2804,21804,28040.00
2805,21832,28050.00
2806,21868,28060.00
2807,21908,28070.00
2808,21944,28080.00
2809,21980,28090.00
2810,22008,28100.00
2811,22040,28110.00
2812,22064,28120.00
2813,22080,28130.00
2814,22100,28140.00
2815,22116,28150.00
2816,22128,28160.00
2817,22140,28170.00
2818,22152,28180.00
2819,22172,28190.00
2820,22184,28200.00
2821,22176,28210.00
2822,22108,28220.00
2823,21976,28230.00
2824,21816,28240.00
2825,21664,28250.00
2826,21548,28260.00
2827,21492,28270.00
2828,21480,28280.00
2829,21512,28290.00
2830,21560,28300.00
2831,21616,28310.00
2832,21672,28320.00
2833,21736,28330.00
2834,21772,28340.00
2835,21792,28350.00
2836,21792,28360.00
2837,21776,28370.00
2838,21744,28380.00
2839,21724,28390.00
2840,21712,28400.00
2841,21716,28410.00
2842,21736,28420.00
2843,21764,28430.00
2844,21800,28440.00
2845,21836,28450.00
2846,21872,28460.00
2847,21904,28470.00
2848,21928,28480.00
2849,21956,28490.00
2850,21976,28500.00
2851,21992,28510.00
2852,22004,28520.00
2853,22020,28530.00
2854,22032,28540.00
2855,22040,28550.00
2856,22052,28560.00
2857,22064,28570.00
2858,22084,28580.00
2859,22088,28590.00
2860,22048,28600.00
2861,21932,28610.00
2862,21780,28620.00
2863,21620,28630.00
2864,21496,28640.00
2865,21424,28650.00
2866,21404,28660.00
2867,21432,28670.00
2868,21476,28680.00
2869,21536,28690.00
2870,21596,28700.00
2871,21656,28710.00
2872,21696,28720.00
2873,21720,28730.00
2874,21720,28740.00
2875,21696,28750.00
2876,21672,28760.00
2877,21648,28770.00
2878,21640,28780.00
2879,21648,28790.00
2880,21664,28800.00
2881,21692,28810.00
2882,21724,28820.00
2883,21768,28830.00
2884,21804,28840.00
2885,21840,28850.00
2886,21864,28860.00
2887,21888,28870.00
2888,21916,28880.00
2889,21928,28890.00
2890,21944,28900.00
2891,21956,28910.00
2892,21968,28920.00
2893,21976,28930.00
2894,21984,28940.00
2895,21996,28950.00
2896,22012,28960.00
2897,22032,28970.00
2898,22052,28980.00
2899,22024,28990.00
2900,21936,29000.00
2901,21796,29010.00
2902,21636,29020.00
2903,21500,29030.00
2904,21416,29040.00
2905,21388,29050.00
2906,21404,29060.00
2907,21448,29070.00
2908,21508,29080.00
2909,21564,29090.00
2910,21620,29100.00
2911,21664,29110.00
2912,21692,29120.00
2913,21692,29130.00
2914,21672,29140.00
2915,21644,29150.00
2916,21624,29160.00
2917,21612,29170.00
2918,21616,29180.00
2919,21632,29190.00
2920,21668,29200.00
2921,21700,29210.00
2922,21736,29220.00
2923,21772,29230.00
2924,21804,29240.00
2925,21828,29250.00
2926,21856,29260.00
2927,21876,29270.00
2928,21892,29280.00
2929,21908,29290.00
2930,21928,29300.00
2931,21940,29310.00
2932,21952,29320.00
2933,21964,29330.00
2934,21980,29340.00
2935,21992,29350.00
2936,22008,29360.00
2937,22028,29370.00
2938,22052,29380.00
2939,22072,29390.00
2940,22080,29400.00
2941,22024,29410.00
2942,21900,29420.00
2943,21736,29430.00
2944,21580,29440.00
2945,21468,29450.00
2946,21416,29460.00
2947,21416,29470.00
2948,21448,29480.00
2949,21504,29490.00
2950,21560,29500.00
2951,21620,29510.00
2952,21672,29520.00
2953,21704,29530.00
2954,21716,29540.00
2955,21704,29550.00
2956,21676,29560.00
2957,21652,29570.00
2958,21636,29580.00
2959,21632,29590.00
2960,21648,29600.00
2961,21672,29610.00
2962,21704,29620.00
2963,21740,29630.00
2964,21780,29640.00
2965,21812,29650.00
2966,21840,29660.00
2967,21864,29670.00
2968,21884,29680.00
2969,21896,29690.00
2970,21912,29700.00
2971,21924,29710.00
2972,21928,29720.00
2973,21940,29730.00
2974,21948,29740.00
2975,21960,29750.00
2976,21972,29760.00
2977,21988,29770.00
2978,22004,29780.00
2979,22024,29790.00
2980,22048,29800.00
2981,22072,29810.00
2982,22068,29820.00
2983,22000,29830.00
2984,21868,29840.00
2985,21704,29850.00
2986,21552,29860.00
2987,21444,29870.00
2988,21400,29880.00
2989,21404,29890.00
2990,21444,29900.00
2991,21496,29910.00
2992,21556,29920.00
2993,21612,29930.00
2994,21664,29940.00
2995,21692,29950.00
2996,21700,29960.00
2997,21688,29970.00
2998,21664,29980.00
2999,21644,29990.00
3000,21632,30000.00
3001,21632,30010.00
3002,21648,30020.00
3003,21676,30030.00
3004,21712,30040.00
3005,21752,30050.00
3006,21792,30060.00
3007,21828,30070.00
3008,21856,30080.00
3009,21880,30090.00
3010,21900,30100.00
3011,21916,30110.00
3012,21928,30120.00
3013,21940,30130.00
3014,21956,30140.00
3015,21964,30150.00
3016,21980,30160.00
3017,21996,30170.00
3018,22008,30180.00
3019,22028,30190.00
3020,22044,30200.00
3021,22064,30210.00
3022,22084,30220.00
3023,22108,30230.00
3024,22136,30240.00
3025,22148,30250.00
3026,22112,30260.00
3027,21996,30270.00
3028,21832,30280.00
3029,21660,30290.00
3030,21528,30300.00
3031,21460,30310.00
3032,21440,30320.00
3033,21468,30330.00
3034,21520,30340.00
3035,21576,30350.00
3036,21628,30360.00
3037,21676,30370.00
3038,21708,30380.00
3039,21728,30390.00
3040,21720,30400.00
3041,21700,30410.00
3042,21676,30420.00
3043,21656,30430.00
3044,21648,30440.00
3045,21656,30450.00
3046,21680,30460.00
3047,21704,30470.00
3048,21740,30480.00
3049,21776,30490.00
3050,21812,30500.00
3051,21844,30510.00
3052,21868,30520.00
3053,21888,30530.00
3054,21904,30540.00
3055,21916,30550.00
3056,21928,30560.00
3057,21940,30570.00
3058,21952,30580.00
3059,21960,30590.00
3060,21968,30600.00
3061,21984,30610.00
3062,21996,30620.00
3063,22016,30630.00
3064,22036,30640.00
3065,22056,30650.00
3066,22072,30660.00
3067,22096,30670.00
3068,22112,30680.00
3069,22132,30690.00
3070,22148,30700.00
3071,22172,30710.00
3072,22188,30720.00
3073,22200,30730.00
3074,22156,30740.00
3075,22032,30750.00
3076,21856,30760.00
3077,21668,30770.00
3078,21528,30780.00
3079,21444,30790.00
3080,21428,30800.00
3081,21456,30810.00
3082,21504,30820.00
3083,21556,30830.00
3084,21608,30840.00
3085,21656,30850.00
3086,21688,30860.00
3087,21700,30870.00
3088,21700,30880.00
3089,21680,30890.00
3090,21656,30900.00
3091,21636,30910.00
3092,21632,30920.00
3093,21640,30930.00
3094,21660,30940.00
3095,21692,30950.00
3096,21728,30960.00
3097,21760,30970.00
3098,21796,30980.00
3099,21824,30990.00
3100,21856,31000.00
3101,21872,31010.00
3102,21888,31020.00
3103,21908,31030.00
3104,21920,31040.00
3105,21936,31050.00
3106,21948,31060.00
3107,21964,31070.00
3108,21976,31080.00
3109,21992,31090.00
3110,22012,31100.00
3111,22032,31110.00
3112,22052,31120.00
3113,22076,31130.00
3114,22100,31140.00
3115,22124,31150.00
3116,22152,31160.00
3117,22172,31170.00
3118,22192,31180.00
3119,22220,31190.00
3120,22240,31200.00
3121,22264,31210.00
3122,22268,31220.00
3123,22220,31230.00
3124,22088,31240.00
3125,21912,31250.00
3126,21732,31260.00
3127,21596,31270.00
3128,21520,31280.00
3129,21512,31290.00
3130,21536,31300.00
3131,21588,31310.00
3132,21640,31320.00
3133,21692,31330.00
3134,21740,31340.00
3135,21776,31350.00
3136,21792,31360.00
3137,21792,31370.00
3138,21776,31380.00
3139,21748,31390.00
3140,21732,31400.00
3141,21720,31410.00
3142,21724,31420.00
3143,21740,31430.00
3144,21764,31440.00
3145,21796,31450.00
3146,21832,31460.00
3147,21860,31470.00
3148,21892,31480.00
3149,21916,31490.00
3150,21936,31500.00
3151,21952,31510.00
3152,21968,31520.00
3153,21972,31530.00
3154,21980,31540.00
3155,21988,31550.00
3156,21992,31560.00
3157,21996,31570.00
3158,22012,31580.00
3159,22020,31590.00
3160,22032,31600.00
3161,22044,31610.00
3162,22064,31620.00
3163,22084,31630.00
3164,22100,31640.00
3165,22120,31650.00
3166,22144,31660.00
3167,22160,31670.00
3168,22132,31680.00
3169,22032,31690.00
3170,21876,31700.00
3171,21696,31710.00
3172,21548,31720.00
3173,21456,31730.00
3174,21428,31740.00
3175,21448,31750.00
3176,21492,31760.00
3177,21548,31770.00
3178,21600,31780.00
3179,21656,31790.00
3180,21692,31800.00
3181,21720,31810.00
3182,21720,31820.00
3183,21700,31830.00
3184,21680,31840.00
3185,21656,31850.00
3186,21648,31860.00
3187,21648,31870.00
3188,21664,31880.00
3189,21688,31890.00
3190,21728,31900.00
3191,21760,31910.00
3192,21800,31920.00
3193,21828,31930.00
3194,21860,31940.00
3195,21880,31950.00
3196,21892,31960.00
3197,21908,31970.00
3198,21916,31980.00
3199,21928,31990.00
3200,21936,32000.00
3201,21944,32010.00
3202,21948,32020.00
3203,21956,32030.00
3204,21968,32040.00
3205,21984,32050.00
3206,21996,32060.00
3207,22012,32070.00
3208,22028,32080.00
3209,22044,32090.00
3210,22068,32100.00
3211,22092,32110.00
3212,22104,32120.00
3213,22056,32130.00
3214,21940,32140.00
3215,21768,32150.00
3216,21592,32160.00
3217,21448,32170.00
3218,21368,32180.00
3219,21340,32190.00
3220,21352,32200.00
3221,21392,32210.00
3222,21432,32220.00
3223,21476,32230.00
3224,21516,32240.00
3225,21548,32250.00
3226,21572,32260.00
3227,21568,32270.00
3228,21552,32280.00
3229,21532,32290.00
3230,21508,32300.00
3231,21500,32310.00
3232,21500,32320.00
3233,21516,32330.00
3234,21544,32340.00
3235,21576,32350.00
3236,21612,32360.00
3237,21644,32370.00
3238,21672,32380.00
3239,21696,32390.00
3240,21720,32400.00
3241,21728,32410.00
3242,21740,32420.00
3243,21748,32430.00
3244,21756,32440.00
3245,21764,32450.00
3246,21768,32460.00
3247,21780,32470.00
3248,21788,32480.00
3249,21800,32490.00
3250,21812,32500.00
3251,21828,32510.00
3252,21844,32520.00
3253,21864,32530.00
3254,21884,32540.00
3255,21904,32550.00
3256,21928,32560.00
3257,21916,32570.00
3258,21836,32580.00
3259,21688,32590.00
3260,21516,32600.00
3261,21364,32610.00
3262,21268,32620.00
3263,21224,32630.00
3264,21232,32640.00
3265,21264,32650.00
3266,21312,32660.00
3267,21352,32670.00
3268,21392,32680.00
3269,21428,32690.00
3270,21456,32700.00
3271,21460,32710.00
3272,21448,32720.00
3273,21428,32730.00
3274,21416,32740.00
3275,21408,32750.00
3276,21408,32760.00
3277,21420,32770.00
3278,21444,32780.00
3279,21476,32790.00
3280,21512,32800.00
3281,21540,32810.00
3282,21572,32820.00
3283,21600,32830.00
3284,21620,32840.00
3285,21636,32850.00
3286,21652,32860.00
3287,21664,32870.00
3288,21672,32880.00
3289,21680,32890.00
3290,21692,32900.00
3291,21704,32910.00
3292,21716,32920.00
3293,21728,32930.00
3294,21744,32940.00
3295,21756,32950.00
3296,21772,32960.00
3297,21788,32970.00
3298,21804,32980.00
3299,21828,32990.00
3300,21844,33000.00
3301,21864,33010.00
3302,21852,33020.00
3303,21776,33030.00
3304,21628,33040.00
3305,21456,33050.00
3306,21300,33060.00
3307,21196,33070.00
3308,21156,33080.00
3309,21164,33090.00
3310,21200,33100.00
3311,21248,33110.00
3312,21288,33120.00
3313,21332,33130.00
3314,21368,33140.00
3315,21392,33150.00
3316,21396,33160.00
3317,21388,33170.00
3318,21372,33180.00
3319,21352,33190.00
3320,21340,33200.00
3321,21340,33210.00
3322,21352,33220.00
3323,21372,33230.00
3324,21404,33240.00
3325,21436,33250.00
3326,21464,33260.00
3327,21492,33270.00
3328,21512,33280.00
3329,21532,33290.00
3330,21540,33300.00
3331,21548,33310.00
3332,21556,33320.00
3333,21560,33330.00
3334,21568,33340.00
3335,21576,33350.00
3336,21584,33360.00
3337,21596,33370.00
3338,21608,33380.00
3339,21624,33390.00
3340,21640,33400.00
3341,21660,33410.00
3342,21680,33420.00
3343,21708,33430.00
3344,21732,33440.00
3345,21736,33450.00
3346,21684,33460.00
3347,21560,33470.00
3348,21400,33480.00
3349,21248,33490.00
3350,21148,33500.00
3351,21100,33510.00
3352,21108,33520.00
3353,21144,33530.00
3354,21188,33540.00
3355,21228,33550.00
3356,21272,33560.00
3357,21312,33570.00
3358,21336,33580.00
3359,21348,33590.00
3360,21336,33600.00
3361,21328,33610.00
3362,21308,33620.00
3363,21300,33630.00
3364,21304,33640.00
3365,21320,33650.00
3366,21344,33660.00
3367,21380,33670.00
3368,21412,33680.00
3369,21448,33690.00
3370,21480,33700.00
3371,21500,33710.00
3372,21524,33720.00
3373,21540,33730.00
3374,21552,33740.00
3375,21560,33750.00
3376,21568,33760.00
3377,21580,33770.00
3378,21592,33780.00
3379,21600,33790.00
3380,21612,33800.00
3381,21624,33810.00
3382,21636,33820.00
3383,21652,33830.00
3384,21668,33840.00
3385,21684,33850.00
3386,21704,33860.00
3387,21728,33870.00
3388,21740,33880.00
3389,21708,33890.00
3390,21592,33900.00
3391,21428,33910.00
3392,21260,33920.00
3393,21128,33930.00
3394,21060,33940.00
3395,21052,33950.00
3396,21080,33960.00
3397,21116,33970.00
3398,21152,33980.00
3399,21184,33990.00
3400,21216,34000.00
3401,21244,34010.00
3402,21260,34020.00
3403,21268,34030.00
3404,21264,34040.00
3405,21256,34050.00
3406,21252,34060.00
3407,21256,34070.00
3408,21264,34080.00
3409,21284,34090.00
3410,21320,34100.00
3411,21348,34110.00
3412,21388,34120.00
3413,21420,34130.00
3414,21444,34140.00
3415,21472,34150.00
3416,21488,34160.00
3417,21504,34170.00
3418,21516,34180.00
3419,21524,34190.00
3420,21536,34200.00
3421,21544,34210.00
3422,21560,34220.00
3423,21572,34230.00
3424,21588,34240.00
3425,21604,34250.00
3426,21628,34260.00
3427,21644,34270.00
3428,21668,34280.00
3429,21688,34290.00
3430,21708,34300.00
3431,21728,34310.00
3432,21744,34320.00
3433,21760,34330.00
3434,21780,34340.00
3435,21800,34350.00
3436,21816,34360.00
3437,21832,34370.00
3438,21792,34380.00
3439,21672,34390.00
3440,21496,34400.00
3441,21316,34410.00
3442,21168,34420.00
3443,21092,34430.00
3444,21076,34440.00
3445,21100,34450.00
3446,21136,34460.00
3447,21172,34470.00
3448,21200,34480.00
3449,21220,34490.00
3450,21244,34500.00
3451,21260,34510.00
3452,21260,34520.00
3453,21260,34530.00
3454,21248,34540.00
3455,21244,34550.00
3456,21240,34560.00
3457,21252,34570.00
3458,21268,34580.00
3459,21292,34590.00
3460,21320,34600.00
3461,21352,34610.00
3462,21384,34620.00
3463,21416,34630.00
3464,21444,34640.00
3465,21464,34650.00
3466,21480,34660.00
3467,21496,34670.00
3468,21512,34680.00
3469,21524,34690.00
3470,21532,34700.00
3471,21548,34710.00
3472,21564,34720.00
3473,21580,34730.00
3474,21596,34740.00
3475,21616,34750.00
3476,21640,34760.00
3477,21660,34770.00
3478,21680,34780.00
3479,21704,34790.00
3480,21728,34800.00
3481,21748,34810.00
3482,21768,34820.00
3483,21784,34830.00
3484,21804,34840.00
3485,21820,34850.00
3486,21844,34860.00
3487,21864,34870.00
3488,21880,34880.00
3489,21852,34890.00
3490,21744,34900.00
3491,21576,34910.00
3492,21400,34920.00
3493,21260,34930.00
3494,21176,34940.00
3495,21160,34950.00
3496,21184,34960.00
3497,21236,34970.00
3498,21288,34980.00
3499,21332,34990.00
3500,21368,35000.00
3501,21408,35010.00
3502,21428,35020.00
3503,21436,35030.00
3504,21424,35040.00
3505,21412,35050.00
3506,21404,35060.00
3507,21400,35070.00
3508,21400,35080.00
3509,21424,35090.00
3510,21448,35100.00
3511,21484,35110.00
3512,21524,35120.00
3513,21556,35130.00
3514,21588,35140.00
3515,21612,35150.00
3516,21632,35160.00
3517,21644,35170.00
3518,21652,35180.00
3519,21656,35190.00
3520,21664,35200.00
3521,21672,35210.00
3522,21680,35220.00
3523,21688,35230.00
3524,21708,35240.00
3525,21720,35250.00
3526,21740,35260.00
3527,21756,35270.00
3528,21776,35280.00
3529,21800,35290.00
3530,21828,35300.00
3531,21848,35310.00
3532,21864,35320.00
3533,21844,35330.00
3534,21752,35340.00
3535,21604,35350.00
3536,21440,35360.00
3537,21308,35370.00
3538,21240,35380.00
3539,21236,35390.00
3540,21260,35400.00
3541,21316,35410.00
3542,21364,35420.00
3543,21404,35430.00
3544,21444,35440.00
3545,21476,35450.00
3546,21492,35460.00
3547,21488,35470.00
3548,21464,35480.00
3549,21444,35490.00
3550,21420,35500.00
3551,21412,35510.00
3552,21416,35520.00
3553,21436,35530.00
3554,21460,35540.00
3555,21496,35550.00
3556,21528,35560.00
3557,21560,35570.00
3558,21592,35580.00
3559,21620,35590.00
3560,21640,35600.00
3561,21656,35610.00
3562,21668,35620.00
3563,21680,35630.00
3564,21688,35640.00
3565,21692,35650.00
3566,21700,35660.00
3567,21708,35670.00
3568,21712,35680.00
3569,21724,35690.00
3570,21744,35700.00
3571,21764,35710.00
3572,21780,35720.00
3573,21788,35730.00
3574,21740,35740.00
3575,21616,35750.00
3576,21444,35760.00
3577,21276,35770.00
3578,21148,35780.00
3579,21084,35790.00
3580,21072,35800.00
3581,21088,35810.00
3582,21124,35820.00
3583,21152,35830.00
3584,21176,35840.00
3585,21200,35850.00
3586,21224,35860.00
3587,21232,35870.00
3588,21232,35880.00
3589,21216,35890.00
3590,21200,35900.00
3591,21192,35910.00
3592,21184,35920.00
3593,21192,35930.00
3594,21204,35940.00
3595,21232,35950.00
3596,21264,35960.00
3597,21292,35970.00
3598,21324,35980.00
3599,21348,35990.00
3600,21372,36000.00
3601,21388,36010.00
3602,21408,36020.00
3603,21416,36030.00
3604,21428,36040.00
3605,21440,36050.00
3606,21448,36060.00
3607,21464,36070.00
3608,21484,36080.00
3609,21504,36090.00
3610,21528,36100.00
3611,21556,36110.00
3612,21576,36120.00
3613,21564,36130.00
3614,21488,36140.00
3615,21368,36150.00
3616,21240,36160.00
3617,21136,36170.00
3618,21088,36180.00
3619,21088,36190.00
3620,21108,36200.00
3621,21144,36210.00
3622,21184,36220.00
3623,21216,36230.00
3624,21256,36240.00
3625,21288,36250.00
3626,21312,36260.00
3627,21324,36270.00
3628,21324,36280.00
3629,21316,36290.00
3630,21308,36300.00
3631,21312,36310.00
3632,21328,36320.00
3633,21348,36330.00
3634,21380,36340.00
3635,21408,36350.00
3636,21436,36360.00
3637,21464,36370.00
3638,21488,36380.00
3639,21512,36390.00
3640,21532,36400.00
3641,21548,36410.00
3642,21568,36420.00
3643,21576,36430.00
3644,21588,36440.00
3645,21600,36450.00
3646,21612,36460.00
3647,21628,36470.00
3648,21644,36480.00
3649,21668,36490.00
3650,21676,36500.00
3651,21672,36510.00
3652,21612,36520.00
3653,21508,36530.00
3654,21376,36540.00
3655,21260,36550.00
3656,21180,36560.00
3657,21140,36570.00
3658,21148,36580.00
3659,21176,36590.00
3660,21208,36600.00
3661,21240,36610.00
3662,21284,36620.00
3663,21328,36630.00
3664,21356,36640.00
3665,21376,36650.00
3666,21380,36660.00
3667,21380,36670.00
3668,21372,36680.00
3669,21368,36690.00
3670,21376,36700.00
3671,21388,36710.00
3672,21404,36720.00
3673,21432,36730.00
3674,21456,36740.00
3675,21480,36750.00
3676,21500,36760.00
3677,21520,36770.00
3678,21536,36780.00
3679,21552,36790.00
3680,21564,36800.00
3681,21580,36810.00
3682,21588,36820.00
3683,21600,36830.00
3684,21616,36840.00
3685,21636,36850.00
3686,21648,36860.00
3687,21656,36870.00
3688,21648,36880.00
3689,21588,36890.00
3690,21492,36900.00
3691,21384,36910.00
3692,21304,36920.00
3693,21252,36930.00
3694,21240,36940.00
3695,21256,36950.00
3696,21284,36960.00
3697,21316,36970.00
3698,21352,36980.00
3699,21384,36990.00
3700,21420,37000.00
3701,21444,37010.00
3702,21452,37020.00
3703,21460,37030.00
3704,21456,37040.00
3705,21456,37050.00
3706,21460,37060.00
3707,21476,37070.00
3708,21500,37080.00
3709,21528,37090.00
3710,21564,37100.00
3711,21596,37110.00
3712,21628,37120.00
3713,21652,37130.00
3714,21680,37140.00
3715,21700,37150.00
3716,21720,37160.00
3717,21736,37170.00
3718,21752,37180.00
3719,21768,37190.00
3720,21784,37200.00
3721,21800,37210.00
3722,21816,37220.00
3723,21840,37230.00
3724,21860,37240.00
3725,21884,37250.00
3726,21912,37260.00
3727,21928,37270.00
3728,21904,37280.00
3729,21824,37290.00
3730,21708,37300.00
3731,21584,37310.00
3732,21480,37320.00
3733,21420,37330.00
3734,21400,37340.00
3735,21408,37350.00
3736,21424,37360.00
3737,21436,37370.00
3738,21452,37380.00
3739,21476,37390.00
3740,21500,37400.00
3741,21524,37410.00
3742,21540,37420.00
3743,21548,37430.00
3744,21548,37440.00
3745,21552,37450.00
3746,21552,37460.00
3747,21564,37470.00
3748,21580,37480.00
3749,21604,37490.00
3750,21632,37500.00
3751,21656,37510.00
3752,21684,37520.00
3753,21708,37530.00
3754,21732,37540.00
3755,21756,37550.00
3756,21772,37560.00
3757,21788,37570.00
3758,21804,37580.00
3759,21816,37590.00
3760,21832,37600.00
3761,21844,37610.00
3762,21864,37620.00
3763,21876,37630.00
3764,21900,37640.00
3765,21920,37650.00
3766,21940,37660.00
3767,21960,37670.00
3768,21980,37680.00
3769,22000,37690.00
3770,22020,37700.00
3771,22036,37710.00
3772,22052,37720.00
3773,22064,37730.00
3774,22072,37740.00
3775,22088,37750.00
3776,22100,37760.00
3777,22112,37770.00
3778,22132,37780.00
3779,22152,37790.00
3780,22176,37800.00
3781,22184,37810.00
3782,22148,37820.00
3783,22064,37830.00
3784,21932,37840.00
3785,21784,37850.00
3786,21668,37860.00
3787,21596,37870.00
3788,21564,37880.00
3789,21560,37890.00
3790,21572,37900.00
3791,21580,37910.00
3792,21592,37920.00
3793,21604,37930.00
3794,21628,37940.00
3795,21656,37950.00
3796,21684,37960.00
3797,21704,37970.00
3798,21720,37980.00
3799,21728,37990.00
3800,21736,38000.00
3801,21744,38010.00
3802,21760,38020.00
3803,21776,38030.00
3804,21800,38040.00
3805,21816,38050.00
3806,21836,38060.00
3807,21856,38070.00
3808,21876,38080.00
3809,21896,38090.00
3810,21916,38100.00
3811,21928,38110.00
3812,21940,38120.00
3813,21952,38130.00
3814,21960,38140.00
3815,21968,38150.00
3816,21984,38160.00
3817,21996,38170.00
3818,22012,38180.00
3819,22028,38190.00
3820,22052,38200.00
3821,22072,38210.00
3822,22096,38220.00
3823,22124,38230.00
3824,22152,38240.00
3825,22176,38250.00
3826,22200,38260.00
3827,22220,38270.00
3828,22252,38280.00
3829,22280,38290.00
3830,22308,38300.00
3831,22340,38310.00
3832,22372,38320.00
3833,22396,38330.00
3834,22376,38340.00
3835,22304,38350.00
3836,22188,38360.00
3837,22060,38370.00
3838,21960,38380.00
3839,21892,38390.00
3840,21860,38400.00
3841,21856,38410.00
3842,21876,38420.00
3843,21900,38430.00
3844,21928,38440.00
3845,21960,38450.00
3846,21980,38460.00
3847,22000,38470.00
3848,22012,38480.00
3849,22016,38490.00
3850,22008,38500.00
3851,21996,38510.00
3852,21988,38520.00
3853,21988,38530.00
3854,22000,38540.00
3855,22028,38550.00
3856,22056,38560.00
3857,22092,38570.00
3858,22124,38580.00
3859,22156,38590.00
3860,22188,38600.00
3861,22212,38610.00
3862,22232,38620.00
3863,22244,38630.00
3864,22256,38640.00
3865,22268,38650.00
3866,22280,38660.00
3867,22288,38670.00
3868,22300,38680.00
3869,22316,38690.00
3870,22328,38700.00
3871,22344,38710.00
3872,22356,38720.00
3873,22372,38730.00
3874,22396,38740.00
3875,22412,38750.00
3876,22432,38760.00
3877,22432,38770.00
3878,22388,38780.00
3879,22296,38790.00
3880,22164,38800.00
3881,22028,38810.00
3882,21912,38820.00
3883,21832,38830.00
3884,21800,38840.00
3885,21796,38850.00
3886,21808,38860.00
3887,21828,38870.00
3888,21848,38880.00
3889,21876,38890.00
3890,21904,38900.00
3891,21928,38910.00
3892,21944,38920.00
3893,21948,38930.00
3894,21948,38940.00
3895,21944,38950.00
3896,21940,38960.00
3897,21944,38970.00
3898,21964,38980.00
3899,21984,38990.00
3900,22008,39000.00
3901,22040,39010.00
3902,22080,39020.00
3903,22116,39030.00
3904,22148,39040.00
3905,22180,39050.00
3906,22208,39060.00
3907,22232,39070.00
3908,22248,39080.00
3909,22272,39090.00
3910,22296,39100.00
3911,22320,39110.00
3912,22344,39120.00
3913,22364,39130.00
3914,22388,39140.00
3915,22408,39150.00
3916,22436,39160.00
3917,22460,39170.00
3918,22484,39180.00
3919,22488,39190.00
3920,22440,39200.00
3921,22340,39210.00
3922,22208,39220.00
3923,22072,39230.00
3924,21968,39240.00
3925,21904,39250.00
3926,21880,39260.00
3927,21888,39270.00
3928,21912,39280.00
3929,21936,39290.00
3930,21968,39300.00
3931,21996,39310.00
3932,22028,39320.00
3933,22056,39330.00
3934,22076,39340.00
3935,22096,39350.00
3936,22104,39360.00
3937,22108,39370.00
3938,22112,39380.00
3939,22124,39390.00
3940,22144,39400.00
3941,22168,39410.00
3942,22200,39420.00
3943,22232,39430.00
3944,22268,39440.00
3945,22304,39450.00
3946,22336,39460.00
3947,22360,39470.00
3948,22388,39480.00
3949,22416,39490.00
3950,22444,39500.00
3951,22464,39510.00
3952,22488,39520.00
3953,22516,39530.00
3954,22544,39540.00
3955,22568,39550.00
3956,22592,39560.00
3957,22596,39570.00
3958,22564,39580.00
3959,22488,39590.00
3960,22396,39600.00
3961,22304,39610.00
3962,22236,39620.00
3963,22196,39630.00
3964,22188,39640.00
3965,22196,39650.00
3966,22212,39660.00
3967,22236,39670.00
3968,22252,39680.00
3969,22280,39690.00
3970,22308,39700.00
3971,22336,39710.00
3972,22356,39720.00
3973,22368,39730.00
3974,22376,39740.00
3975,22384,39750.00
3976,22392,39760.00
3977,22404,39770.00
3978,22420,39780.00
3979,22448,39790.00
3980,22476,39800.00
3981,22508,39810.00
3982,22536,39820.00
3983,22572,39830.00
3984,22600,39840.00
3985,22628,39850.00
3986,22652,39860.00
3987,22676,39870.00
3988,22704,39880.00
3989,22728,39890.00
3990,22748,39900.00
3991,22768,39910.00
3992,22796,39920.00
3993,22816,39930.00
3994,22840,39940.00
3995,22868,39950.00
3996,22892,39960.00
3997,22896,39970.00
3998,22860,39980.00
3999,22796,39990.00
4000,22720,40000.00
4001,22640,40010.00
4002,22580,40020.00
4003,22548,40030.00
4004,22540,40040.00
4005,22544,40050.00
4006,22560,40060.00
4007,22572,40070.00
4008,22588,40080.00
4009,22608,40090.00
4010,22628,40100.00
4011,22640,40110.00
4012,22660,40120.00
4013,22664,40130.00
4014,22672,40140.00
4015,22672,40150.00
4016,22676,40160.00
4017,22684,40170.00
4018,22700,40180.00
4019,22720,40190.00
4020,22740,40200.00
4021,22764,40210.00
4022,22788,40220.00
4023,22816,40230.00
4024,22840,40240.00
4025,22864,40250.00
4026,22880,40260.00
4027,22908,40270.00
4028,22924,40280.00
4029,22940,40290.00
4030,22964,40300.00
4031,22976,40310.00
4032,22996,40320.00
4033,23016,40330.00
4034,23036,40340.00
4035,23056,40350.00
4036,23068,40360.00
4037,23056,40370.00
4038,23008,40380.00
4039,22940,40390.00
4040,22868,40400.00
4041,22804,40410.00
4042,22760,40420.00
4043,22740,40430.00
4044,22740,40440.00
4045,22748,40450.00
4046,22764,40460.00
4047,22776,40470.00
4048,22792,40480.00
4049,22812,40490.00
4050,22828,40500.00
4051,22844,40510.00
4052,22848,40520.00
4053,22848,40530.00
4054,22852,40540.00
4055,22852,40550.00
4056,22864,40560.00
4057,22872,40570.00
4058,22888,40580.00
4059,22908,40590.00
4060,22928,40600.00
4061,22952,40610.00
4062,22976,40620.00
4063,23000,40630.00
4064,23024,40640.00
4065,23048,40650.00
4066,23068,40660.00
4067,23088,40670.00
4068,23104,40680.00
4069,23128,40690.00
4070,23144,40700.00
4071,23164,40710.00
4072,23180,40720.00
4073,23204,40730.00
4074,23224,40740.00
4075,23236,40750.00
4076,23228,40760.00
4077,23188,40770.00
4078,23124,40780.00
4079,23056,40790.00
4080,22988,40800.00
4081,22948,40810.00
4082,22928,40820.00
4083,22928,40830.00
4084,22944,40840.00
4085,22952,40850.00
4086,22972,40860.00
4087,22984,40870.00
4088,23004,40880.00
4089,23016,40890.00
4090,23020,40900.00
4091,23024,40910.00
4092,23020,40920.00
4093,23012,40930.00
4094,23012,40940.00
4095,23012,40950.00
4096,23020,40960.00
4097,23032,40970.00
4098,23048,40980.00
4099,23064,40990.00
4100,23080,41000.00
4101,23096,41010.00
4102,23108,41020.00
4103,23124,41030.00
4104,23136,41040.00
4105,23148,41050.00
4106,23160,41060.00
4107,23176,41070.00
4108,23188,41080.00
4109,23200,41090.00
4110,23212,41100.00
4111,23232,41110.00
4112,23244,41120.00
4113,23232,41130.00
4114,23188,41140.00
4115,23124,41150.00
4116,23044,41160.00
4117,22976,41170.00
4118,22924,41180.00
4119,22900,41190.00
4120,22892,41200.00
4121,22896,41210.00
4122,22912,41220.00
4123,22924,41230.00
4124,22944,41240.00
4125,22964,41250.00
4126,22980,41260.00
4127,22984,41270.00
4128,22984,41280.00
4129,22976,41290.00
4130,22968,41300.00
4131,22960,41310.00
4132,22956,41320.00
4133,22956,41330.00
4134,22964,41340.00
4135,22976,41350.00
4136,22988,41360.00
4137,23004,41370.00
4138,23020,41380.00
4139,23044,41390.00
4140,23060,41400.00
4141,23072,41410.00
4142,23088,41420.00
4143,23104,41430.00
4144,23116,41440.00
4145,23128,41450.00
4146,23144,41460.00
4147,23156,41470.00
4148,23160,41480.00
4149,23132,41490.00
4150,23072,41500.00
4151,22980,41510.00
4152,22888,41520.00
4153,22804,41530.00
4154,22740,41540.00
4155,22704,41550.00
4156,22688,41560.00
4157,22684,41570.00
4158,22692,41580.00
4159,22704,41590.00
4160,22720,41600.00
4161,22736,41610.00
4162,22744,41620.00
4163,22744,41630.00
4164,22736,41640.00
4165,22724,41650.00
4166,22712,41660.00
4167,22700,41670.00
4168,22692,41680.00
4169,22692,41690.00
4170,22704,41700.00
4171,22716,41710.00
4172,22732,41720.00
4173,22752,41730.00
4174,22772,41740.00
4175,22792,41750.00
4176,22812,41760.00
4177,22828,41770.00
4178,22848,41780.00
4179,22864,41790.00
4180,22884,41800.00
4181,22904,41810.00
4182,22920,41820.00
4183,22932,41830.00
4184,22920,41840.00
4185,22872,41850.00
4186,22788,41860.00
4187,22676,41870.00
4188,22556,41880.00
4189,22468,41890.00
4190,22404,41900.00
4191,22376,41910.00
4192,22372,41920.00
4193,22380,41930.00
4194,22400,41940.00
4195,22420,41950.00
4196,22452,41960.00
4197,22476,41970.00
4198,22492,41980.00
4199,22496,41990.00
4200,22492,42000.00
4201,22488,42010.00
4202,22476,42020.00
4203,22480,42030.00
4204,22484,42040.00
4205,22496,42050.00
4206,22512,42060.00
4207,22544,42070.00
4208,22568,42080.00
4209,22600,42090.00
4210,22624,42100.00
4211,22652,42110.00
4212,22676,42120.00
4213,22700,42130.00
4214,22724,42140.00
4215,22744,42150.00
4216,22768,42160.00
4217,22788,42170.00
4218,22808,42180.00
4219,22828,42190.00
4220,22828,42200.00
4221,22780,42210.00
4222,22688,42220.00
4223,22572,42230.00
4224,22448,42240.00
4225,22348,42250.00
4226,22284,42260.00
4227,22256,42270.00
4228,22256,42280.00
4229,22272,42290.00
4230,22296,42300.00
4231,22324,42310.00
4232,22364,42320.00
4233,22392,42330.00
4234,22412,42340.00
4235,22416,42350.00
4236,22412,42360.00
4237,22400,42370.00
4238,22388,42380.00
4239,22380,42390.00
4240,22384,42400.00
4241,22396,42410.00
4242,22412,42420.00
4243,22436,42430.00
4244,22464,42440.00
4245,22492,42450.00
4246,22520,42460.00
4247,22548,42470.00
4248,22572,42480.00
4249,22588,42490.00
4250,22612,42500.00
4251,22632,42510.00
4252,22652,42520.00
4253,22676,42530.00
4254,22684,42540.00
4255,22676,42550.00
4256,22620,42560.00
4257,22520,42570.00
4258,22396,42580.00
4259,22276,42590.00
4260,22180,42600.00
4261,22128,42610.00
4262,22116,42620.00
4263,22128,42630.00
4264,22152,42640.00
4265,22192,42650.00
4266,22236,42660.00
4267,22276,42670.00
4268,22308,42680.00
4269,22332,42690.00
4270,22328,42700.00
4271,22316,42710.00
4272,22296,42720.00
4273,22272,42730.00
4274,22252,42740.00
4275,22244,42750.00
4276,22248,42760.00
4277,22252,42770.00
4278,22272,42780.00
4279,22288,42790.00
4280,22312,42800.00
4281,22332,42810.00
4282,22352,42820.00
4283,22376,42830.00
4284,22400,42840.00
4285,22424,42850.00
4286,22444,42860.00
4287,22460,42870.00
4288,22444,42880.00
4289,22376,42890.00
4290,22268,42900.00
4291,22132,42910.00
4292,22008,42920.00
4293,21924,42930.00
4294,21892,42940.00
4295,21900,42950.00
4296,21932,42960.00
4297,21980,42970.00
4298,22028,42980.00
4299,22084,42990.00
4300,22132,43000.00
4301,22160,43010.00
4302,22172,43020.00
4303,22164,43030.00
4304,22144,43040.00
4305,22124,43050.00
4306,22108,43060.00
4307,22112,43070.00
4308,22120,43080.00
4309,22144,43090.00
4310,22172,43100.00
4311,22204,43110.00
4312,22240,43120.00
4313,22276,43130.00
4314,22304,43140.00
4315,22328,43150.00
4316,22356,43160.00
4317,22380,43170.00
4318,22404,43180.00
4319,22424,43190.00
4320,22440,43200.00
4321,22432,43210.00
4322,22352,43220.00
4323,22220,43230.00
4324,22056,43240.00
4325,21912,43250.00
4326,21812,43260.00
4327,21772,43270.00
4328,21784,43280.00
4329,21816,43290.00
4330,21860,43300.00
4331,21904,43310.00
4332,21952,43320.00
4333,21996,43330.00
4334,22024,43340.00
4335,22036,43350.00
4336,22040,43360.00
4337,22028,43370.00
4338,22012,43380.00
4339,22000,43390.00
4340,22000,43400.00
4341,22016,43410.00
4342,22036,43420.00
4343,22068,43430.00
4344,22104,43440.00
4345,22136,43450.00
4346,22176,43460.00
4347,22204,43470.00
4348,22236,43480.00
4349,22264,43490.00
4350,22280,43500.00
4351,22300,43510.00
4352,22320,43520.00
4353,22336,43530.00
4354,22360,43540.00
4355,22364,43550.00
4356,22324,43560.00
4357,22216,43570.00
4358,22064,43580.00
4359,21904,43590.00
4360,21784,43600.00
4361,21720,43610.00
4362,21712,43620.00
4363,21732,43630.00
4364,21772,43640.00
4365,21824,43650.00
4366,21868,43660.00
4367,21908,43670.00
4368,21952,43680.00
4369,21972,43690.00
4370,21980,43700.00
4371,21976,43710.00
4372,21964,43720.00
4373,21952,43730.00
4374,21952,43740.00
4375,21960,43750.00
4376,21980,43760.00
4377,22012,43770.00
4378,22044,43780.00
4379,22080,43790.00
4380,22112,43800.00
4381,22148,43810.00
4382,22176,43820.00
4383,22200,43830.00
4384,22220,43840.00
4385,22240,43850.00
4386,22256,43860.00
4387,22276,43870.00
4388,22288,43880.00
4389,22304,43890.00
4390,22324,43900.00
4391,22328,43910.00
4392,22292,43920.00
4393,22192,43930.00
4394,22044,43940.00
4395,21896,43950.00
4396,21772,43960.00
4397,21712,43970.00
4398,21700,43980.00
4399,21728,43990.00
4400,21768,44000.00
4401,21812,44010.00
4402,21864,44020.00
4403,21908,44030.00
4404,21944,44040.00
4405,21968,44050.00
4406,21972,44060.00
4407,21968,44070.00
4408,21952,44080.00
4409,21944,44090.00
4410,21944,44100.00
4411,21956,44110.00
4412,21972,44120.00
4413,22004,44130.00
4414,22036,44140.00
4415,22068,44150.00
4416,22104,44160.00
4417,22140,44170.00
4418,22164,44180.00
4419,22188,44190.00
4420,22208,44200.00
4421,22228,44210.00
4422,22248,44220.00
4423,22264,44230.00
4424,22288,44240.00
4425,22308,44250.00
4426,22308,44260.00
4427,22268,44270.00
4428,22168,44280.00
4429,22024,44290.00
4430,21880,44300.00
4431,21780,44310.00
4432,21736,44320.00
4433,21740,44330.00
4434,21776,44340.00
4435,21828,44350.00
4436,21884,44360.00
4437,21940,44370.00
4438,21988,44380.00
4439,22028,44390.00
4440,22044,44400.00
4441,22044,44410.00
4442,22028,44420.00
4443,22008,44430.00
4444,21992,44440.00
4445,21988,44450.00
4446,22000,44460.00
4447,22020,44470.00
4448,22048,44480.00
4449,22076,44490.00
4450,22108,44500.00
4451,22140,44510.00
4452,22168,44520.00
4453,22196,44530.00
4454,22216,44540.00
4455,22240,44550.00
4456,22252,44560.00
4457,22264,44570.00
4458,22280,44580.00
4459,22292,44590.00
4460,22304,44600.00
4461,22316,44610.00
4462,22336,44620.00
4463,22352,44630.00
4464,22360,44640.00
4465,22328,44650.00
4466,22232,44660.00
4467,22080,44670.00
4468,21920,44680.00
4469,21796,44690.00
4470,21724,44700.00
4471,21712,44710.00
4472,21740,44720.00
4473,21784,44730.00
4474,21836,44740.00
4475,21896,44750.00
4476,21944,44760.00
4477,21984,44770.00
4478,22004,44780.00
4479,22000,44790.00
4480,21984,44800.00
4481,21964,44810.00
4482,21944,44820.00
4483,21940,44830.00
4484,21944,44840.00
4485,21968,44850.00
4486,21992,44860.00
4487,22028,44870.00
4488,22060,44880.00
4489,22092,44890.00
4490,22124,44900.00
4491,22152,44910.00
4492,22172,44920.00
4493,22192,44930.00
4494,22212,44940.00
4495,22228,44950.00
4496,22236,44960.00
4497,22244,44970.00
4498,22252,44980.00
4499,22260,44990.00
4500,22264,45000.00
4501,22272,45010.00
4502,22284,45020.00
4503,22300,45030.00
4504,22316,45040.00
4505,22328,45050.00
4506,22300,45060.00
4507,22212,45070.00
4508,22068,45080.00
4509,21900,45090.00
4510,21760,45100.00
4511,21680,45110.00
4512,21656,45120.00
4513,21676,45130.00
4514,21716,45140.00
4515,21768,45150.00
4516,21828,45160.00
4517,21880,45170.00
4518,21928,45180.00
4519,21952,45190.00
4520,21960,45200.00
4521,21952,45210.00
4522,21928,45220.00
4523,21912,45230.00
4524,21904,45240.00
4525,21908,45250.00
4526,21924,45260.00
4527,21952,45270.00
4528,21984,45280.00
4529,22024,45290.00
4530,22060,45300.00
4531,22096,45310.00
4532,22116,45320.00
4533,22140,45330.00
4534,22156,45340.00
4535,22172,45350.00
4536,22188,45360.00
4537,22200,45370.00
4538,22212,45380.00
4539,22224,45390.00
4540,22236,45400.00
4541,22244,45410.00
4542,22252,45420.00
4543,22264,45430.00
4544,22272,45440.00
4545,22284,45450.00
4546,22304,45460.00
4547,22320,45470.00
4548,22336,45480.00
4549,22352,45490.00
4550,22340,45500.00
4551,22268,45510.00
4552,22120,45520.00
4553,21940,45530.00
4554,21772,45540.00
4555,21660,45550.00
4556,21608,45560.00
4557,21616,45570.00
4558,21648,45580.00
4559,21700,45590.00
4560,21752,45600.00
4561,21812,45610.00
4562,21856,45620.00
4563,21884,45630.00
4564,21896,45640.00
4565,21888,45650.00
4566,21864,45660.00
4567,21836,45670.00
4568,21820,45680.00
4569,21820,45690.00
4570,21832,45700.00
4571,21864,45710.00
4572,21896,45720.00
4573,21936,45730.00
4574,21968,45740.00
4575,22004,45750.00
4576,22032,45760.00
4577,22056,45770.00
4578,22080,45780.00
4579,22092,45790.00
4580,22108,45800.00
4581,22124,45810.00
4582,22132,45820.00
4583,22144,45830.00
4584,22160,45840.00
4585,22172,45850.00
4586,22184,45860.00
4587,22196,45870.00
4588,22220,45880.00
4589,22232,45890.00
4590,22252,45900.00
4591,22272,45910.00
4592,22300,45920.00
4593,22324,45930.00
4594,22328,45940.00
4595,22280,45950.00
4596,22152,45960.00
4597,21988,45970.00
4598,21816,45980.00
4599,21688,45990.00
4600,21620,46000.00
4601,21612,46010.00
4602,21640,46020.00
4603,21688,46030.00
4604,21736,46040.00
4605,21792,46050.00
4606,21848,46060.00
4607,21884,46070.00
4608,21904,46080.00
4609,21900,46090.00
4610,21876,46100.00
4611,21852,46110.00
4612,21828,46120.00
4613,21816,46130.00
4614,21824,46140.00
4615,21844,46150.00
4616,21876,46160.00
4617,21912,46170.00
4618,21948,46180.00
4619,21980,46190.00
4620,22012,46200.00
4621,22036,46210.00
4622,22060,46220.00
4623,22076,46230.00
4624,22092,46240.00
4625,22108,46250.00
4626,22120,46260.00
4627,22136,46270.00
4628,22144,46280.00
4629,22156,46290.00
4630,22168,46300.00
4631,22176,46310.00
4632,22192,46320.00
4633,22204,46330.00
4634,22224,46340.00
4635,22244,46350.00
4636,22264,46360.00
4637,22284,46370.00
4638,22280,46380.00
4639,22208,46390.00
4640,22064,46400.00
4641,21884,46410.00
4642,21716,46420.00
4643,21596,46430.00
4644,21544,46440.00
4645,21544,46450.00
4646,21580,46460.00
4647,21628,46470.00
4648,21680,46480.00
4649,21732,46490.00
4650,21776,46500.00
4651,21812,46510.00
4652,21824,46520.00
4653,21816,46530.00
4654,21792,46540.00
4655,21768,46550.00
4656,21744,46560.00
4657,21736,46570.00
4658,21744,46580.00
4659,21768,46590.00
4660,21796,46600.00
4661,21832,46610.00
4662,21864,46620.00
4663,21892,46630.00
4664,21924,46640.00
4665,21944,46650.00
4666,21968,46660.00
4667,21988,46670.00
4668,22008,46680.00
4669,22024,46690.00
4670,22040,46700.00
4671,22060,46710.00
4672,22076,46720.00
4673,22092,46730.00
4674,22104,46740.00
4675,22124,46750.00
4676,22144,46760.00
4677,22168,46770.00
4678,22192,46780.00
4679,22220,46790.00
4680,22252,46800.00
4681,22284,46810.00
4682,22320,46820.00
4683,22348,46830.00
4684,22332,46840.00
4685,22236,46850.00
4686,22076,46860.00
4687,21896,46870.00
4688,21732,46880.00
4689,21628,46890.00
4690,21600,46900.00
4691,21616,46910.00
4692,21664,46920.00
4693,21716,46930.00
4694,21768,46940.00
4695,21812,46950.00
4696,21860,46960.00
4697,21884,46970.00
4698,21888,46980.00
4699,21876,46990.00
4700,21848,47000.00
4701,21820,47010.00
4702,21804,47020.00
4703,21804,47030.00
4704,21816,47040.00
4705,21844,47050.00
4706,21876,47060.00
4707,21908,47070.00
4708,21940,47080.00
4709,21972,47090.00
4710,22000,47100.00
4711,22020,47110.00
4712,22044,47120.00
4713,22068,47130.00
4714,22080,47140.00
4715,22092,47150.00
4716,22100,47160.00
4717,22112,47170.00
4718,22124,47180.00
4719,22136,47190.00
4720,22144,47200.00
4721,22152,47210.00
4722,22164,47220.00
4723,22180,47230.00
4724,22200,47240.00
4725,22220,47250.00
4726,22240,47260.00
4727,22268,47270.00
4728,22280,47280.00
4729,22252,47290.00
4730,22152,47300.00
4731,21988,47310.00
4732,21804,47320.00
4733,21656,47330.00
4734,21560,47340.00
4735,21532,47350.00
4736,21544,47360.00
4737,21588,47370.00
4738,21632,47380.00
4739,21680,47390.00
4740,21724,47400.00
4741,21768,47410.00
4742,21800,47420.00
4743,21808,47430.00
4744,21800,47440.00
4745,21776,47450.00
4746,21752,47460.00
4747,21740,47470.00
4748,21736,47480.00
4749,21752,47490.00
4750,21780,47500.00
4751,21808,47510.00
4752,21840,47520.00
4753,21876,47530.00
4754,21904,47540.00
4755,21928,47550.00
4756,21952,47560.00
4757,21964,47570.00
4758,21976,47580.00
4759,21988,47590.00
4760,21996,47600.00
4761,22004,47610.00
4762,22016,47620.00
4763,22036,47630.00
4764,22056,47640.00
4765,22072,47650.00
4766,22088,47660.00
4767,22104,47670.00
4768,22120,47680.00
4769,22132,47690.00
4770,22152,47700.00
4771,22168,47710.00
4772,22192,47720.00
4773,22216,47730.00
4774,22228,47740.00
4775,22188,47750.00
4776,22076,47760.00
4777,21920,47770.00
4778,21760,47780.00
4779,21644,47790.00
4780,21576,47800.00
4781,21568,47810.00
4782,21600,47820.00
4783,21644,47830.00
4784,21696,47840.00
4785,21748,47850.00
4786,21800,47860.00
4787,21840,47870.00
4788,21856,47880.00
4789,21852,47890.00
4790,21836,47900.00
4791,21804,47910.00
4792,21776,47920.00
4793,21760,47930.00
4794,21756,47940.00
4795,21772,47950.00
4796,21800,47960.00
4797,21832,47970.00
4798,21868,47980.00
4799,21908,47990.00
4800,21940,48000.00
4801,21976,48010.00
4802,22004,48020.00
4803,22028,48030.00
4804,22052,48040.00
4805,22072,48050.00
4806,22084,48060.00
4807,22100,48070.00
4808,22112,48080.00
4809,22124,48090.00
4810,22132,48100.00
4811,22148,48110.00
4812,22160,48120.00
4813,22172,48130.00
4814,22188,48140.00
4815,22204,48150.00
4816,22228,48160.00
4817,22236,48170.00
4818,22212,48180.00
4819,22104,48190.00
4820,21948,48200.00
4821,21776,48210.00
4822,21632,48220.00
4823,21540,48230.00
4824,21512,48240.00
4825,21524,48250.00
4826,21564,48260.00
4827,21600,48270.00
4828,21636,48280.00
4829,21676,48290.00
4830,21716,48300.00
4831,21736,48310.00
4832,21744,48320.00
4833,21732,48330.00
4834,21712,48340.00
4835,21688,48350.00
4836,21668,48360.00
4837,21660,48370.00
4838,21668,48380.00
4839,21684,48390.00
4840,21712,48400.00
4841,21740,48410.00
4842,21772,48420.00
4843,21796,48430.00
4844,21820,48440.00
4845,21840,48450.00
4846,21856,48460.00
4847,21876,48470.00
4848,21892,48480.00
4849,21900,48490.00
4850,21908,48500.00
4851,21916,48510.00
4852,21920,48520.00
4853,21932,48530.00
4854,21944,48540.00
4855,21956,48550.00
4856,21972,48560.00
4857,21984,48570.00
4858,22000,48580.00
4859,22020,48590.00
4860,22036,48600.00
4861,22060,48610.00
4862,22080,48620.00
4863,22088,48630.00
4864,22052,48640.00
4865,21932,48650.00
4866,21756,48660.00
4867,21572,48670.00
4868,21428,48680.00
4869,21348,48690.00
4870,21324,48700.00
4871,21344,48710.00
4872,21388,48720.00
4873,21436,48730.00
4874,21472,48740.00
4875,21512,48750.00
4876,21548,48760.00
4877,21568,48770.00
4878,21576,48780.00
4879,21572,48790.00
4880,21552,48800.00
4881,21536,48810.00
4882,21524,48820.00
4883,21524,48830.00
4884,21540,48840.00
4885,21568,48850.00
4886,21600,48860.00
4887,21632,48870.00
4888,21668,48880.00
4889,21700,48890.00
4890,21724,48900.00
4891,21744,48910.00
4892,21768,48920.00
4893,21784,48930.00
4894,21792,48940.00
4895,21804,48950.00
4896,21812,48960.00
4897,21824,48970.00
4898,21832,48980.00
4899,21840,48990.00
4900,21856,49000.00
4901,21868,49010.00
4902,21884,49020.00
4903,21904,49030.00
4904,21920,49040.00
4905,21936,49050.00
4906,21956,49060.00
4907,21968,49070.00
4908,21984,49080.00
4909,22004,49090.00
4910,22024,49100.00
4911,22012,49110.00
4912,21928,49120.00
4913,21772,49130.00
4914,21588,49140.00
4915,21420,49150.00
4916,21308,49160.00
4917,21260,49170.00
4918,21260,49180.00
4919,21296,49190.00
4920,21340,49200.00
4921,21380,49210.00
4922,21416,49220.00
4923,21452,49230.00
4924,21476,49240.00
4925,21492,49250.00
4926,21500,49260.00
4927,21488,49270.00
4928,21480,49280.00
4929,21464,49290.00
4930,21464,49300.00
4931,21476,49310.00
4932,21492,49320.00
4933,21524,49330.00
4934,21556,49340.00
4935,21588,49350.00
4936,21624,49360.00
4937,21656,49370.00
4938,21684,49380.00
4939,21708,49390.00
4940,21724,49400.00
4941,21744,49410.00
4942,21756,49420.00
4943,21764,49430.00
4944,21776,49440.00
4945,21788,49450.00
4946,21800,49460.00
4947,21812,49470.00
4948,21828,49480.00
4949,21844,49490.00
4950,21860,49500.00
4951,21876,49510.00
4952,21896,49520.00
4953,21912,49530.00
4954,21928,49540.00
4955,21948,49550.00
4956,21964,49560.00
4957,21984,49570.00
4958,22004,49580.00
4959,22012,49590.00
4960,21968,49600.00
4961,21836,49610.00
4962,21652,49620.00
4963,21472,49630.00
4964,21336,49640.00
4965,21256,49650.00
4966,21240,49660.00
4967,21264,49670.00
4968,21304,49680.00
4969,21348,49690.00
4970,21388,49700.00
4971,21420,49710.00
4972,21456,49720.00
4973,21476,49730.00
4974,21484,49740.00
4975,21476,49750.00
4976,21464,49760.00
4977,21448,49770.00
4978,21440,49780.00
4979,21444,49790.00
4980,21460,49800.00
4981,21484,49810.00
4982,21520,49820.00
4983,21556,49830.00
4984,21592,49840.00
4985,21628,49850.00
4986,21656,49860.00
4987,21684,49870.00
4988,21704,49880.00
4989,21720,49890.00
4990,21732,49900.00
4991,21744,49910.00
4992,21756,49920.00
4993,21764,49930.00
4994,21776,49940.00
4995,21792,49950.00
4996,21808,49960.00
4997,21820,49970.00
4998,21836,49980.00
4999,21856,49990.00
5000,21876,50000.00
5001,21896,50010.00
5002,21916,50020.00
5003,21940,50030.00
5004,21964,50040.00
5005,21964,50050.00
5006,21908,50060.00
5007,21776,50070.00
5008,21596,50080.00
5009,21424,50090.00
5010,21292,50100.00
5011,21228,50110.00
5012,21224,50120.00
5013,21248,50130.00
5014,21292,50140.00
5015,21328,50150.00
5016,21360,50160.00
5017,21392,50170.00
5018,21420,50180.00
5019,21440,50190.00
5020,21444,50200.00
5021,21436,50210.00
5022,21420,50220.00
5023,21404,50230.00
5024,21404,50240.00
5025,21404,50250.00
5026,21424,50260.00
5027,21452,50270.00
5028,21488,50280.00
5029,21520,50290.00
5030,21556,50300.00
5031,21588,50310.00
5032,21616,50320.00
5033,21636,50330.00
5034,21656,50340.00
5035,21676,50350.00
5036,21692,50360.00
5037,21704,50370.00
5038,21716,50380.00
5039,21732,50390.00
5040,21748,50400.00
5041,21764,50410.00
5042,21780,50420.00
5043,21804,50430.00
5044,21824,50440.00
5045,21840,50450.00
5046,21860,50460.00
5047,21888,50470.00
5048,21904,50480.00
5049,21928,50490.00
5050,21948,50500.00
5051,21972,50510.00
5052,21988,50520.00
5053,21964,50530.00
5054,21856,50540.00
5055,21692,50550.00
5056,21512,50560.00
5057,21364,50570.00
5058,21276,50580.00
5059,21248,50590.00
5060,21264,50600.00
5061,21304,50610.00
5062,21344,50620.00
5063,21376,50630.00
5064,21408,50640.00
5065,21440,50650.00
5066,21460,50660.00
5067,21464,50670.00
5068,21460,50680.00
5069,21444,50690.00
5070,21428,50700.00
5071,21412,50710.00
5072,21412,50720.00
5073,21428,50730.00
5074,21448,50740.00
5075,21476,50750.00
5076,21508,50760.00
5077,21544,50770.00
5078,21580,50780.00
5079,21612,50790.00
5080,21640,50800.00
5081,21660,50810.00
5082,21684,50820.00
5083,21696,50830.00
5084,21708,50840.00
5085,21720,50850.00
5086,21732,50860.00
5087,21744,50870.00
5088,21760,50880.00
5089,21772,50890.00
5090,21796,50900.00
5091,21812,50910.00
5092,21832,50920.00
5093,21848,50930.00
5094,21868,50940.00
5095,21884,50950.00
5096,21900,50960.00
5097,21920,50970.00
5098,21940,50980.00
5099,21960,50990.00
5100,21980,51000.00
5101,21968,51010.00
5102,21876,51020.00
5103,21720,51030.00
5104,21536,51040.00
5105,21376,51050.00
5106,21272,51060.00
5107,21232,51070.00
5108,21236,51080.00
5109,21272,51090.00
5110,21316,51100.00
5111,21360,51110.00
5112,21396,51120.00
5113,21432,51130.00
5114,21460,51140.00
5115,21464,51150.00
5116,21460,51160.00
5117,21448,51170.00
5118,21424,51180.00
5119,21404,51190.00
5120,21396,51200.00
5121,21396,51210.00
5122,21416,51220.00
5123,21440,51230.00
5124,21476,51240.00
5125,21504,51250.00
5126,21540,51260.00
5127,21572,51270.00
5128,21596,51280.00
5129,21616,51290.00
5130,21640,51300.00
5131,21656,51310.00
5132,21668,51320.00
5133,21672,51330.00
5134,21684,51340.00
5135,21688,51350.00
5136,21700,51360.00
5137,21712,51370.00
5138,21724,51380.00
5139,21736,51390.00
5140,21760,51400.00
5141,21776,51410.00
5142,21804,51420.00
5143,21840,51430.00
5144,21868,51440.00
5145,21888,51450.00
5146,21856,51460.00
5147,21752,51470.00
5148,21592,51480.00
5149,21432,51490.00
5150,21308,51500.00
5151,21244,51510.00
5152,21236,51520.00
5153,21268,51530.00
5154,21316,51540.00
5155,21368,51550.00
5156,21420,51560.00
5157,21472,51570.00
5158,21516,51580.00
5159,21540,51590.00
5160,21548,51600.00
5161,21536,51610.00
5162,21520,51620.00
5163,21500,51630.00
5164,21484,51640.00
5165,21484,51650.00
5166,21500,51660.00
5167,21524,51670.00
5168,21552,51680.00
5169,21592,51690.00
5170,21624,51700.00
5171,21656,51710.00
5172,21680,51720.00
5173,21700,51730.00
5174,21720,51740.00
5175,21736,51750.00
5176,21748,51760.00
5177,21764,51770.00
5178,21772,51780.00
5179,21780,51790.00
5180,21788,51800.00
5181,21796,51810.00
5182,21812,51820.00
5183,21820,51830.00
5184,21836,51840.00
5185,21856,51850.00
5186,21876,51860.00
5187,21896,51870.00
5188,21912,51880.00
5189,21880,51890.00
5190,21776,51900.00
5191,21616,51910.00
5192,21444,51920.00
5193,21296,51930.00
5194,21208,51940.00
5195,21180,51950.00
5196,21196,51960.00
5197,21236,51970.00
5198,21280,51980.00
5199,21328,51990.00
5200,21368,52000.00
5201,21408,52010.00
5202,21436,52020.00
5203,21444,52030.00
5204,21436,52040.00
5205,21416,52050.00
5206,21400,52060.00
5207,21388,52070.00
5208,21388,52080.00
5209,21396,52090.00
5210,21420,52100.00
5211,21448,52110.00
5212,21484,52120.00
5213,21520,52130.00
5214,21556,52140.00
5215,21584,52150.00
5216,21608,52160.00
5217,21632,52170.00
5218,21652,52180.00
5219,21668,52190.00
5220,21684,52200.00
5221,21700,52210.00
5222,21716,52220.00
5223,21724,52230.00
5224,21736,52240.00
5225,21744,52250.00
5226,21752,52260.00
5227,21764,52270.00
5228,21772,52280.00
5229,21792,52290.00
5230,21812,52300.00
5231,21840,52310.00
5232,21852,52320.00
5233,21808,52330.00
5234,21692,52340.00
5235,21528,52350.00
5236,21364,52360.00
5237,21240,52370.00
5238,21172,52380.00
5239,21156,52390.00
5240,21184,52400.00
5241,21220,52410.00
5242,21264,52420.00
5243,21312,52430.00
5244,21360,52440.00
5245,21396,52450.00
5246,21420,52460.00
5247,21432,52470.00
5248,21424,52480.00
5249,21408,52490.00
5250,21392,52500.00
5251,21384,52510.00
5252,21384,52520.00
5253,21408,52530.00
5254,21432,52540.00
5255,21464,52550.00
5256,21504,52560.00
5257,21540,52570.00
5258,21576,52580.00
5259,21612,52590.00
5260,21644,52600.00
5261,21668,52610.00
5262,21688,52620.00
5263,21708,52630.00
5264,21724,52640.00
5265,21740,52650.00
5266,21756,52660.00
5267,21772,52670.00
5268,21788,52680.00
5269,21804,52690.00
5270,21824,52700.00
5271,21840,52710.00
5272,21864,52720.00
5273,21888,52730.00
5274,21912,52740.00
5275,21944,52750.00
5276,21972,52760.00
5277,21968,52770.00
5278,21896,52780.00
5279,21744,52790.00
5280,21572,52800.00
5281,21420,52810.00
5282,21316,52820.00
5283,21280,52830.00
5284,21288,52840.00
5285,21324,52850.00
5286,21372,52860.00
5287,21420,52870.00
5288,21468,52880.00
5289,21512,52890.00
5290,21540,52900.00
5291,21552,52910.00
5292,21544,52920.00
5293,21524,52930.00
5294,21500,52940.00
5295,21476,52950.00
5296,21468,52960.00
5297,21472,52970.00
5298,21488,52980.00
5299,21516,52990.00
5300,21548,53000.00
5301,21576,53010.00
5302,21608,53020.00
5303,21632,53030.00
5304,21660,53040.00
5305,21680,53050.00
5306,21700,53060.00
5307,21716,53070.00
5308,21732,53080.00
5309,21744,53090.00
5310,21760,53100.00
5311,21764,53110.00
5312,21780,53120.00
5313,21792,53130.00
5314,21804,53140.00
5315,21828,53150.00
5316,21852,53160.00
5317,21872,53170.00
5318,21864,53180.00
5319,21792,53190.00
5320,21656,53200.00
5321,21496,53210.00
5322,21352,53220.00
5323,21260,53230.00
5324,21220,53240.00
5325,21232,53250.00
5326,21272,53260.00
5327,21320,53270.00
5328,21372,53280.00
5329,21424,53290.00
5330,21476,53300.00
5331,21512,53310.00
5332,21524,53320.00
5333,21524,53330.00
5334,21512,53340.00
5335,21484,53350.00
5336,21468,53360.00
5337,21464,53370.00
5338,21468,53380.00
5339,21488,53390.00
5340,21520,53400.00
5341,21556,53410.00
5342,21592,53420.00
5343,21624,53430.00
5344,21656,53440.00
5345,21684,53450.00
5346,21708,53460.00
5347,21732,53470.00
5348,21748,53480.00
5349,21764,53490.00
5350,21772,53500.00
5351,21784,53510.00
5352,21796,53520.00
5353,21804,53530.00
5354,21820,53540.00
5355,21828,53550.00
5356,21844,53560.00
5357,21864,53570.00
5358,21880,53580.00
5359,21904,53590.00
5360,21904,53600.00
5361,21836,53610.00
5362,21700,53620.00
5363,21524,53630.00
5364,21364,53640.00
5365,21248,53650.00
5366,21200,53660.00
5367,21196,53670.00
5368,21228,53680.00
5369,21272,53690.00
5370,21320,53700.00
5371,21364,53710.00
5372,21412,53720.00
5373,21444,53730.00
5374,21464,53740.00
5375,21468,53750.00
5376,21456,53760.00
5377,21444,53770.00
5378,21432,53780.00
5379,21432,53790.00
5380,21444,53800.00
5381,21464,53810.00
5382,21492,53820.00
5383,21528,53830.00
5384,21564,53840.00
5385,21596,53850.00
5386,21628,53860.00
5387,21656,53870.00
5388,21680,53880.00
5389,21704,53890.00
5390,21724,53900.00
5391,21740,53910.00
5392,21756,53920.00
5393,21764,53930.00
5394,21776,53940.00
5395,21788,53950.00
5396,21804,53960.00
5397,21824,53970.00
5398,21844,53980.00
5399,21860,53990.00
5400,21844,54000.00
5401,21744,54010.00
5402,21600,54020.00
5403,21444,54030.00
5404,21316,54040.00
5405,21248,54050.00
5406,21228,54060.00
5407,21248,54070.00
5408,21296,54080.00
5409,21340,54090.00
5410,21380,54100.00
5411,21428,54110.00
5412,21468,54120.00
5413,21492,54130.00
5414,21496,54140.00
5415,21488,54150.00
5416,21476,54160.00
5417,21456,54170.00
5418,21444,54180.00
5419,21448,54190.00
5420,21460,54200.00
5421,21484,54210.00
5422,21512,54220.00
5423,21548,54230.00
5424,21584,54240.00
5425,21612,54250.00
5426,21640,54260.00
5427,21664,54270.00
5428,21684,54280.00
5429,21704,54290.00
5430,21712,54300.00
5431,21724,54310.00
5432,21732,54320.00
5433,21736,54330.00
5434,21748,54340.00
5435,21768,54350.00
5436,21784,54360.00
5437,21792,54370.00
5438,21748,54380.00
5439,21636,54390.00
5440,21496,54400.00
5441,21360,54410.00
5442,21260,54420.00
5443,21220,54430.00
5444,21228,54440.00
5445,21268,54450.00
5446,21316,54460.00
5447,21368,54470.00
5448,21412,54480.00
5449,21460,54490.00
5450,21496,54500.00
5451,21508,54510.00
5452,21500,54520.00
5453,21476,54530.00
5454,21452,54540.00
5455,21436,54550.00
5456,21428,54560.00
5457,21444,54570.00
5458,21472,54580.00
5459,21508,54590.00
5460,21544,54600.00
5461,21584,54610.00
5462,21620,54620.00
5463,21648,54630.00
5464,21676,54640.00
5465,21692,54650.00
5466,21708,54660.00
5467,21720,54670.00
5468,21732,54680.00
5469,21744,54690.00
5470,21756,54700.00
5471,21772,54710.00
5472,21780,54720.00
5473,21744,54730.00
5474,21648,54740.00
5475,21512,54750.00
5476,21376,54760.00
5477,21264,54770.00
5478,21208,54780.00
5479,21200,54790.00
5480,21232,54800.00
5481,21264,54810.00
5482,21300,54820.00
5483,21340,54830.00
5484,21380,54840.00
5485,21416,54850.00
5486,21428,54860.00
5487,21424,54870.00
5488,21412,54880.00
5489,21388,54890.00
5490,21380,54900.00
5491,21372,54910.00
5492,21384,54920.00
5493,21404,54930.00
5494,21436,54940.00
5495,21472,54950.00
5496,21504,54960.00
5497,21532,54970.00
5498,21560,54980.00
5499,21580,54990.00
5500,21600,55000.00
5501,21620,55010.00
5502,21636,55020.00
5503,21644,55030.00
5504,21656,55040.00
5505,21664,55050.00
5506,21668,55060.00
5507,21680,55070.00
5508,21696,55080.00
5509,21712,55090.00
5510,21728,55100.00
5511,21712,55110.00
5512,21632,55120.00
5513,21492,55130.00
5514,21332,55140.00
5515,21204,55150.00
5516,21132,55160.00
5517,21120,55170.00
5518,21136,55180.00
5519,21172,55190.00
5520,21208,55200.00
5521,21240,55210.00
5522,21268,55220.00
5523,21296,55230.00
5524,21320,55240.00
5525,21324,55250.00
5526,21320,55260.00
5527,21312,55270.00
5528,21300,55280.00
5529,21296,55290.00
5530,21300,55300.00
5531,21320,55310.00
5532,21344,55320.00
5533,21372,55330.00
5534,21404,55340.00
5535,21436,55350.00
5536,21464,55360.00
5537,21476,55370.00
5538,21496,55380.00
5539,21508,55390.00
5540,21520,55400.00
5541,21532,55410.00
5542,21540,55420.00
5543,21556,55430.00
5544,21564,55440.00
5545,21580,55450.00
5546,21592,55460.00
5547,21608,55470.00
5548,21628,55480.00
5549,21644,55490.00
5550,21668,55500.00
5551,21696,55510.00
5552,21724,55520.00
5553,21748,55530.00
5554,21756,55540.00
5555,21700,55550.00
5556,21572,55560.00
5557,21400,55570.00
5558,21244,55580.00
5559,21144,55590.00
5560,21112,55600.00
5561,21120,55610.00
5562,21156,55620.00
5563,21192,55630.00
5564,21228,55640.00
5565,21260,55650.00
5566,21288,55660.00
5567,21316,55670.00
5568,21332,55680.00
5569,21340,55690.00
5570,21336,55700.00
5571,21328,55710.00
5572,21328,55720.00
5573,21332,55730.00
5574,21348,55740.00
5575,21368,55750.00
5576,21396,55760.00
5577,21428,55770.00
5578,21460,55780.00
5579,21488,55790.00
5580,21512,55800.00
5581,21532,55810.00
5582,21548,55820.00
5583,21560,55830.00
5584,21572,55840.00
5585,21580,55850.00
5586,21584,55860.00
5587,21596,55870.00
5588,21604,55880.00
5589,21620,55890.00
5590,21628,55900.00
5591,21644,55910.00
5592,21656,55920.00
5593,21668,55930.00
5594,21684,55940.00
5595,21696,55950.00
5596,21712,55960.00
5597,21728,55970.00
5598,21744,55980.00
5599,21760,55990.00
5600,21736,56000.00
5601,21644,56010.00
5602,21484,56020.00
5603,21308,56030.00
5604,21168,56040.00
5605,21092,56050.00
5606,21076,56060.00
5607,21100,56070.00
5608,21136,56080.00
5609,21180,56090.00
5610,21212,56100.00
5611,21248,56110.00
5612,21284,56120.00
5613,21300,56130.00
5614,21304,56140.00
5615,21296,56150.00
5616,21280,56160.00
5617,21264,56170.00
5618,21260,56180.00
5619,21268,56190.00
5620,21288,56200.00
5621,21312,56210.00
5622,21348,56220.00
5623,21384,56230.00
5624,21412,56240.00
5625,21440,56250.00
5626,21464,56260.00
5627,21480,56270.00
5628,21500,56280.00
5629,21516,56290.00
5630,21528,56300.00
5631,21540,56310.00
5632,21552,56320.00
5633,21568,56330.00
5634,21580,56340.00
5635,21592,56350.00
5636,21608,56360.00
5637,21620,56370.00
5638,21640,56380.00
5639,21656,56390.00
5640,21672,56400.00
5641,21692,56410.00
5642,21716,56420.00
5643,21736,56430.00
5644,21744,56440.00
5645,21704,56450.00
5646,21584,56460.00
5647,21416,56470.00
5648,21244,56480.00
5649,21128,56490.00
5650,21072,56500.00
5651,21068,56510.00
5652,21096,56520.00
5653,21128,56530.00
5654,21160,56540.00
5655,21184,56550.00
5656,21204,56560.00
5657,21232,56570.00
5658,21256,56580.00
5659,21268,56590.00
5660,21272,56600.00
5661,21264,56610.00
5662,21264,56620.00
5663,21268,56630.00
5664,21276,56640.00
5665,21296,56650.00
5666,21324,56660.00
5667,21352,56670.00
5668,21388,56680.00
5669,21420,56690.00
5670,21452,56700.00
5671,21476,56710.00
5672,21492,56720.00
5673,21512,56730.00
5674,21524,56740.00
5675,21536,56750.00
5676,21548,56760.00
5677,21560,56770.00
5678,21576,56780.00
5679,21588,56790.00
5680,21600,56800.00
5681,21620,56810.00
5682,21636,56820.00
5683,21656,56830.00
5684,21672,56840.00
5685,21688,56850.00
5686,21704,56860.00
5687,21716,56870.00
5688,21732,56880.00
5689,21748,56890.00
5690,21764,56900.00
5691,21780,56910.00
5692,21796,56920.00
5693,21820,56930.00
5694,21824,56940.00
5695,21760,56950.00
5696,21620,56960.00
5697,21444,56970.00
5698,21276,56980.00
5699,21164,56990.00
5700,21120,57000.00
5701,21132,57010.00
5702,21164,57020.00
5703,21212,57030.00
5704,21240,57040.00
5705,21264,57050.00
5706,21280,57060.00
5707,21308,57070.00
5708,21328,57080.00
5709,21344,57090.00
5710,21352,57100.00
5711,21352,57110.00
5712,21348,57120.00
5713,21352,57130.00
5714,21364,57140.00
5715,21384,57150.00
5716,21416,57160.00
5717,21456,57170.00
5718,21492,57180.00
5719,21532,57190.00
5720,21572,57200.00
5721,21608,57210.00
5722,21640,57220.00
5723,21660,57230.00
5724,21684,57240.00
5725,21700,57250.00
5726,21712,57260.00
5727,21728,57270.00
5728,21744,57280.00
5729,21756,57290.00
5730,21776,57300.00
5731,21792,57310.00
5732,21812,57320.00
5733,21832,57330.00
5734,21852,57340.00
5735,21876,57350.00
5736,21896,57360.00
5737,21916,57370.00
5738,21940,57380.00
5739,21956,57390.00
5740,21972,57400.00
5741,21996,57410.00
5742,22008,57420.00
5743,22024,57430.00
5744,22040,57440.00
5745,22052,57450.00
5746,22068,57460.00
5747,22060,57470.00
5748,21980,57480.00
5749,21820,57490.00
5750,21628,57500.00
5751,21452,57510.00
5752,21328,57520.00
5753,21276,57530.00
5754,21284,57540.00
5755,21316,57550.00
5756,21360,57560.00
5757,21400,57570.00
5758,21428,57580.00
5759,21452,57590.00
5760,21484,57600.00
5761,21492,57610.00
5762,21492,57620.00
5763,21476,57630.00
5764,21460,57640.00
5765,21444,57650.00
5766,21432,57660.00
5767,21436,57670.00
5768,21452,57680.00
5769,21480,57690.00
5770,21516,57700.00
5771,21548,57710.00
5772,21580,57720.00
5773,21608,57730.00
5774,21632,57740.00
5775,21648,57750.00
5776,21660,57760.00
5777,21672,57770.00
5778,21684,57780.00
5779,21692,57790.00
5780,21696,57800.00
5781,21708,57810.00
5782,21716,57820.00
5783,21728,57830.00
5784,21744,57840.00
5785,21764,57850.00
5786,21788,57860.00
5787,21812,57870.00
5788,21836,57880.00
5789,21864,57890.00
5790,21884,57900.00
5791,21868,57910.00
5792,21784,57920.00
5793,21632,57930.00
5794,21460,57940.00
5795,21324,57950.00
5796,21244,57960.00
5797,21224,57970.00
5798,21248,57980.00
5799,21292,57990.00
5800,21336,58000.00
5801,21376,58010.00
5802,21412,58020.00
5803,21452,58030.00
5804,21484,58040.00
5805,21504,58050.00
5806,21512,58060.00
5807,21508,58070.00
5808,21500,58080.00
5809,21500,58090.00
5810,21508,58100.00
5811,21528,58110.00
5812,21560,58120.00
5813,21600,58130.00
5814,21636,58140.00
5815,21672,58150.00
5816,21708,58160.00
5817,21748,58170.00
5818,21776,58180.00
5819,21800,58190.00
5820,21824,58200.00
5821,21844,58210.00
5822,21864,58220.00
5823,21880,58230.00
5824,21896,58240.00
5825,21908,58250.00
5826,21924,58260.00
5827,21940,58270.00
5828,21960,58280.00
5829,21980,58290.00
5830,22004,58300.00
5831,22028,58310.00
5832,22052,58320.00
5833,22084,58330.00
5834,22100,58340.00
5835,22076,58350.00
5836,21976,58360.00
5837,21812,58370.00
5838,21640,58380.00
5839,21496,58390.00
5840,21416,58400.00
5841,21400,58410.00
5842,21420,58420.00
5843,21464,58430.00
5844,21508,58440.00
5845,21540,58450.00
5846,21576,58460.00
5847,21608,58470.00
5848,21632,58480.00
5849,21652,58490.00
5850,21652,58500.00
5851,21640,58510.00
5852,21636,58520.00
5853,21628,58530.00
5854,21628,58540.00
5855,21644,58550.00
5856,21664,58560.00
5857,21696,58570.00
5858,21724,58580.00
5859,21752,58590.00
5860,21780,58600.00
5861,21800,58610.00
5862,21820,58620.00
5863,21836,58630.00
5864,21852,58640.00
5865,21864,58650.00
5866,21872,58660.00
5867,21884,58670.00
5868,21892,58680.00
5869,21896,58690.00
5870,21904,58700.00
5871,21912,58710.00
5872,21924,58720.00
5873,21944,58730.00
5874,21960,58740.00
5875,21988,58750.00
5876,22000,58760.00
5877,21972,58770.00
5878,21872,58780.00
5879,21712,58790.00
5880,21540,58800.00
5881,21400,58810.00
5882,21320,58820.00
5883,21296,58830.00
5884,21312,58840.00
5885,21352,58850.00
5886,21388,58860.00
5887,21424,58870.00
5888,21452,58880.00
5889,21488,58890.00
5890,21504,58900.00
5891,21508,58910.00
5892,21504,58920.00
5893,21492,58930.00
5894,21476,58940.00
5895,21468,58950.00
5896,21468,58960.00
5897,21476,58970.00
5898,21496,58980.00
5899,21520,58990.00
5900,21544,59000.00
5901,21568,59010.00
5902,21600,59020.00
5903,21624,59030.00
5904,21648,59040.00
5905,21668,59050.00
5906,21688,59060.00
5907,21696,59070.00
5908,21708,59080.00
5909,21720,59090.00
5910,21736,59100.00
5911,21752,59110.00
5912,21764,59120.00
5913,21780,59130.00
5914,21800,59140.00
5915,21824,59150.00
5916,21848,59160.00
5917,21856,59170.00
5918,21816,59180.00
5919,21700,59190.00
5920,21544,59200.00
5921,21392,59210.00
5922,21280,59220.00
5923,21224,59230.00
5924,21212,59240.00
5925,21228,59250.00
5926,21264,59260.00
5927,21304,59270.00
5928,21340,59280.00
5929,21380,59290.00
5930,21428,59300.00
5931,21456,59310.00
5932,21464,59320.00
5933,21464,59330.00
5934,21448,59340.00
5935,21428,59350.00
5936,21416,59360.00
5937,21412,59370.00
5938,21428,59380.00
5939,21456,59390.00
5940,21488,59400.00
5941,21524,59410.00
5942,21564,59420.00
5943,21600,59430.00
5944,21636,59440.00
5945,21664,59450.00
5946,21688,59460.00
5947,21700,59470.00
5948,21712,59480.00
5949,21720,59490.00
5950,21728,59500.00
5951,21748,59510.00
5952,21764,59520.00
5953,21776,59530.00
5954,21780,59540.00
5955,21740,59550.00
5956,21632,59560.00
5957,21496,59570.00
5958,21360,59580.00
5959,21260,59590.00
5960,21212,59600.00
5961,21200,59610.00
5962,21224,59620.00
5963,21264,59630.00
5964,21308,59640.00
5965,21352,59650.00
5966,21400,59660.00
5967,21444,59670.00
5968,21476,59680.00
5969,21488,59690.00
5970,21480,59700.00
5971,21468,59710.00
5972,21448,59720.00
5973,21436,59730.00
5974,21436,59740.00
5975,21456,59750.00
5976,21484,59760.00
5977,21512,59770.00
5978,21548,59780.00
5979,21584,59790.00
5980,21624,59800.00
5981,21652,59810.00
5982,21680,59820.00
5983,21704,59830.00
5984,21720,59840.00
5985,21732,59850.00
5986,21740,59860.00
5987,21756,59870.00
5988,21768,59880.00
5989,21780,59890.00
5990,21800,59900.00
5991,21804,59910.00
5992,21764,59920.00
5993,21660,59930.00
5994,21504,59940.00
5995,21348,59950.00
5996,21240,59960.00
5997,21180,59970.00
5998,21168,59980.00
5999,21192,59990.00
