Sample_Index,IR_Value,Timestamp_ms
0,15456,0.00
1,16180,3.33
2,16732,6.67
3,17040,10.00
4,17380,13.33
5,17832,16.67
6,18520,20.00
7,19580,23.33
8,20516,26.67
9,21136,30.00
10,21612,33.33
11,21964,36.67
12,22272,40.00
13,22516,43.33
14,22824,46.67
15,23108,50.00
16,23296,53.33
17,23468,56.67
18,23528,60.00
19,23576,63.33
20,23648,66.67
21,23736,70.00
22,23784,73.33
23,23828,76.67
24,23908,80.00
25,24028,83.33
26,24112,86.67
27,24224,90.00
28,24364,93.33
29,24496,96.67
30,24644,100.00
31,24780,103.33
32,24896,106.67
33,24996,110.00
34,25120,113.33
35,25264,116.67
36,25408,120.00
37,25544,123.33
38,25640,126.67
39,25760,130.00
40,25980,133.33
41,26488,136.67
42,27128,140.00
43,27444,143.33
44,27504,146.67
45,27488,150.00
46,27464,153.33
47,27464,156.67
48,27468,160.00
49,27480,163.33
50,27500,166.67
51,27528,170.00
52,27552,173.33
53,27584,176.67
54,27620,180.00
55,27652,183.33
56,27696,186.67
57,27728,190.00
58,27764,193.33
59,27800,196.67
60,27836,200.00
61,27872,203.33
62,27904,206.67
63,27932,210.00
64,27960,213.33
65,27984,216.67
66,27936,220.00
67,27760,223.33
68,27572,226.67
69,27456,230.00
70,27372,233.33
71,27320,236.67
72,27264,240.00
73,27228,243.33
74,27208,246.67
75,27204,250.00
76,27196,253.33
77,27188,256.67
78,27184,260.00
79,27176,263.33
80,27172,266.67
81,27168,270.00
82,27160,273.33
83,27152,276.67
84,27148,280.00
85,27128,283.33
86,27116,286.67
87,27108,290.00
88,27092,293.33
89,27076,296.67
90,27072,300.00
91,27056,303.33
92,27040,306.67
93,27028,310.00
94,27012,313.33
95,26988,316.67
96,26968,320.00
97,26940,323.33
98,26916,326.67
99,26884,330.00
100,26856,333.33
101,26836,336.67
102,26816,340.00
103,26808,343.33
104,26792,346.67
105,26780,350.00
106,26764,353.33
107,26748,356.67
108,26732,360.00
109,26724,363.33
110,26712,366.67
111,26648,370.00
112,26544,373.33
113,26424,376.67
114,26304,380.00
115,26188,383.33
116,26072,386.67
117,25996,390.00
118,25960,393.33
119,25956,396.67
120,25952,400.00
121,25948,403.33
122,25964,406.67
123,25980,410.00
124,25988,413.33
125,25984,416.67
126,25960,420.00
127,25924,423.33
128,25900,426.67
129,25880,430.00
130,25860,433.33
131,25848,436.67
132,25864,440.00
133,25864,443.33
134,25860,446.67
135,25876,450.00
136,25916,453.33
137,25972,456.67
138,26012,460.00
139,26052,463.33
140,26076,466.67
141,26112,470.00
142,26140,473.33
143,26156,476.67
144,26164,480.00
145,26172,483.33
146,26184,486.67
147,26200,490.00
148,26216,493.33
149,26228,496.67
150,26240,500.00
151,26256,503.33
152,26280,506.67
153,26264,510.00
154,26172,513.33
155,26024,516.67
156,25848,520.00
157,25692,523.33
158,25580,526.67
159,25524,530.00
160,25508,533.33
161,25516,536.67
162,25524,540.00
163,25528,543.33
164,25544,546.67
165,25564,550.00
166,25584,553.33
167,25596,556.67
168,25600,560.00
169,25600,563.33
170,25588,566.67
171,25584,570.00
172,25588,573.33
173,25596,576.67
174,25600,580.00
175,25620,583.33
176,25640,586.67
177,25660,590.00
178,25688,593.33
179,25712,596.67
180,25744,600.00
181,25784,603.33
182,25812,606.67
183,25856,610.00
184,25896,613.33
185,25944,616.67
186,25988,620.00
187,26024,623.33
188,26048,626.67
189,26048,630.00
190,26028,633.33
191,26016,636.67
192,26016,640.00
193,26032,643.33
194,26028,646.67
195,25964,650.00
196,25816,653.33
197,25612,656.67
198,25428,660.00
199,25276,663.33
200,25180,666.67
201,25136,670.00
202,25112,673.33
203,25084,676.67
204,25048,680.00
205,25052,683.33
206,25100,686.67
207,25188,690.00
208,25264,693.33
209,25300,696.67
210,25320,700.00
211,25332,703.33
212,25348,706.67
213,25348,710.00
214,25356,713.33
215,25368,716.67
216,25384,720.00
217,25364,723.33
218,25364,726.67
219,25376,730.00
220,25404,733.33
221,25420,736.67
222,25436,740.00
223,25460,743.33
224,25504,746.67
225,25568,750.00
226,25612,753.33
227,25640,756.67
228,25656,760.00
229,25668,763.33
230,25680,766.67
231,25700,770.00
232,25720,773.33
233,25740,776.67
234,25756,780.00
235,25760,783.33
236,25708,786.67
237,25588,790.00
238,25436,793.33
239,25304,796.67
240,25208,800.00
241,25164,803.33
242,25152,806.67
243,25172,810.00
244,25208,813.33
245,25252,816.67
246,25288,820.00
247,25324,823.33
248,25360,826.67
249,25392,830.00
250,25412,833.33
251,25412,836.67
252,25412,840.00
253,25400,843.33
254,25396,846.67
255,25400,850.00
256,25412,853.33
257,25428,856.67
258,25448,860.00
259,25468,863.33
260,25500,866.67
261,25528,870.00
262,25564,873.33
263,25588,876.67
264,25612,880.00
265,25632,883.33
266,25660,886.67
267,25684,890.00
268,25700,893.33
269,25708,896.67
270,25716,900.00
271,25724,903.33
272,25740,906.67
273,25760,910.00
274,25756,913.33
275,25688,916.67
276,25564,920.00
277,25424,923.33
278,25308,926.67
279,25232,930.00
280,25204,933.33
281,25212,936.67
282,25240,940.00
283,25264,943.33
284,25284,946.67
285,25304,950.00
286,25328,953.33
287,25364,956.67
288,25396,960.00
289,25424,963.33
290,25440,966.67
291,25440,970.00
292,25436,973.33
293,25448,976.67
294,25460,980.00
295,25488,983.33
296,25516,986.67
297,25548,990.00
298,25584,993.33
299,25612,996.67
300,25644,1000.00
301,25676,1003.33
302,25708,1006.67
303,25732,1010.00
304,25752,1013.33
305,25772,1016.67
306,25796,1020.00
307,25812,1023.33
308,25832,1026.67
309,25848,1030.00
310,25864,1033.33
311,25880,1036.67
312,25892,1040.00
313,25908,1043.33
314,25908,1046.67
315,25860,1050.00
316,25740,1053.33
317,25580,1056.67
318,25428,1060.00
319,25316,1063.33
320,25256,1066.67
321,25228,1070.00
322,25224,1073.33
323,25228,1076.67
324,25220,1080.00
325,25216,1083.33
326,25224,1086.67
327,25236,1090.00
328,25248,1093.33
329,25264,1096.67
330,25276,1100.00
331,25280,1103.33
332,25292,1106.67
333,25292,1110.00
334,25292,1113.33
335,25292,1116.67
336,25308,1120.00
337,25352,1123.33
338,25408,1126.67
339,25460,1130.00
340,25504,1133.33
341,25548,1136.67
342,25580,1140.00
343,25616,1143.33
344,25640,1146.67
345,25664,1150.00
346,25696,1153.33
347,25712,1156.67
348,25744,1160.00
349,25780,1163.33
350,25828,1166.67
351,25872,1170.00
352,25916,1173.33
353,25952,1176.67
354,26004,1180.00
355,26084,1183.33
356,26176,1186.67
357,26268,1190.00
358,26308,1193.33
359,26244,1196.67
360,26100,1200.00
361,25900,1203.33
362,25744,1206.67
363,25656,1210.00
364,25624,1213.33
365,25640,1216.67
366,25684,1220.00
367,25744,1223.33
368,25760,1226.67
369,25776,1230.00
370,25820,1233.33
371,25868,1236.67
372,25896,1240.00
373,25916,1243.33
374,25940,1246.67
375,25980,1250.00
376,26008,1253.33
377,26024,1256.67
378,26052,1260.00
379,26096,1263.33
380,26136,1266.67
381,26164,1270.00
382,26188,1273.33
383,26212,1276.67
384,26248,1280.00
385,26296,1283.33
386,26328,1286.67
387,26340,1290.00
388,26348,1293.33
389,26360,1296.67
390,26376,1300.00
391,26384,1303.33
392,26384,1306.67
393,26396,1310.00
394,26428,1313.33
395,26452,1316.67
396,26484,1320.00
397,26516,1323.33
398,26552,1326.67
399,26584,1330.00
400,26624,1333.33
401,26652,1336.67
402,26668,1340.00
403,26644,1343.33
404,26556,1346.67
405,26400,1350.00
406,26224,1353.33
407,26060,1356.67
408,25940,1360.00
409,25876,1363.33
410,25848,1366.67
411,25860,1370.00
412,25888,1373.33
413,25912,1376.67
414,25940,1380.00
415,25972,1383.33
416,26000,1386.67
417,26020,1390.00
418,26028,1393.33
419,26012,1396.67
420,25956,1400.00
421,25932,1403.33
422,25928,1406.67
423,25936,1410.00
424,25960,1413.33
425,26000,1416.67
426,26044,1420.00
427,26068,1423.33
428,26084,1426.67
429,26124,1430.00
430,26172,1433.33
431,26220,1436.67
432,26244,1440.00
433,26268,1443.33
434,26308,1446.67
435,26328,1450.00
436,26328,1453.33
437,26352,1456.67
438,26380,1460.00
439,26392,1463.33
440,26416,1466.67
441,26448,1470.00
442,26468,1473.33
443,26460,1476.67
444,26400,1480.00
445,26276,1483.33
446,26120,1486.67
447,25964,1490.00
448,25832,1493.33
449,25752,1496.67
450,25720,1500.00
451,25728,1503.33
452,25760,1506.67
453,25792,1510.00
454,25820,1513.33
455,25852,1516.67
456,25896,1520.00
457,25936,1523.33
458,25968,1526.67
459,25992,1530.00
460,26012,1533.33
461,26028,1536.67
462,26036,1540.00
463,26044,1543.33
464,26060,1546.67
465,26084,1550.00
466,26116,1553.33
467,26144,1556.67
468,26184,1560.00
469,26224,1563.33
470,26264,1566.67
471,26304,1570.00
472,26344,1573.33
473,26376,1576.67
474,26404,1580.00
475,26440,1583.33
476,26464,1586.67
477,26484,1590.00
478,26508,1593.33
479,26532,1596.67
480,26552,1600.00
481,26576,1603.33
482,26600,1606.67
483,26620,1610.00
484,26592,1613.33
485,26488,1616.67
486,26328,1620.00
487,26152,1623.33
488,26000,1626.67
489,25896,1630.00
490,25852,1633.33
491,25840,1636.67
492,25856,1640.00
493,25880,1643.33
494,25908,1646.67
495,25928,1650.00
496,25960,1653.33
497,25988,1656.67
498,26020,1660.00
499,26048,1663.33
500,26064,1666.67
501,26068,1670.00
502,26072,1673.33
503,26080,1676.67
504,26096,1680.00
505,26108,1683.33
506,26120,1686.67
507,26144,1690.00
508,26176,1693.33
509,26204,1696.67
510,26224,1700.00
511,26260,1703.33
512,26304,1706.67
513,26336,1710.00
514,26360,1713.33
515,26384,1716.67
516,26408,1720.00
517,26432,1723.33
518,26448,1726.67
519,26472,1730.00
520,26488,1733.33
521,26512,1736.67
522,26536,1740.00
523,26556,1743.33
524,26576,1746.67
525,26596,1750.00
526,26624,1753.33
527,26668,1756.67
528,26680,1760.00
529,26616,1763.33
530,26488,1766.67
531,26316,1770.00
532,26160,1773.33
533,26052,1776.67
534,26012,1780.00
535,26016,1783.33
536,26044,1786.67
537,26072,1790.00
538,26112,1793.33
539,26144,1796.67
540,26168,1800.00
541,26192,1803.33
542,26232,1806.67
543,26252,1810.00
544,26260,1813.33
545,26264,1816.67
546,26256,1820.00
547,26244,1823.33
548,26244,1826.67
549,26256,1830.00
550,26272,1833.33
551,26292,1836.67
552,26320,1840.00
553,26344,1843.33
554,26368,1846.67
555,26396,1850.00
556,26444,1853.33
557,26488,1856.67
558,26520,1860.00
559,26552,1863.33
560,26568,1866.67
561,26588,1870.00
562,26604,1873.33
563,26624,1876.67
564,26640,1880.00
565,26660,1883.33
566,26680,1886.67
567,26688,1890.00
568,26652,1893.33
569,26560,1896.67
570,26416,1900.00
571,26268,1903.33
572,26136,1906.67
573,26040,1910.00
574,25984,1913.33
575,25964,1916.67
576,25972,1920.00
577,25992,1923.33
578,26020,1926.67
579,26048,1930.00
580,26084,1933.33
581,26124,1936.67
582,26160,1940.00
583,26192,1943.33
584,26208,1946.67
585,26208,1950.00
586,26204,1953.33
587,26204,1956.67
588,26208,1960.00
589,26216,1963.33
590,26240,1966.67
591,26272,1970.00
592,26308,1973.33
593,26344,1976.67
594,26388,1980.00
595,26428,1983.33
596,26464,1986.67
597,26496,1990.00
598,26524,1993.33
599,26552,1996.67
600,26580,2000.00
601,26600,2003.33
602,26620,2006.67
603,26636,2010.00
604,26620,2013.33
605,26540,2016.67
606,26416,2020.00
607,26280,2023.33
608,26152,2026.67
609,26056,2030.00
610,26000,2033.33
611,25984,2036.67
612,25992,2040.00
613,26012,2043.33
614,26044,2046.67
615,26080,2050.00
616,26124,2053.33
617,26172,2056.67
618,26216,2060.00
619,26248,2063.33
620,26268,2066.67
621,26272,2070.00
622,26268,2073.33
623,26264,2076.67
624,26264,2080.00
625,26272,2083.33
626,26288,2086.67
627,26304,2090.00
628,26336,2093.33
629,26368,2096.67
630,26404,2100.00
631,26432,2103.33
632,26464,2106.67
633,26496,2110.00
634,26524,2113.33
635,26552,2116.67
636,26580,2120.00
637,26604,2123.33
638,26600,2126.67
639,26540,2130.00
640,26416,2133.33
641,26272,2136.67
642,26136,2140.00
643,26036,2143.33
644,25980,2146.67
645,25960,2150.00
646,25972,2153.33
647,26000,2156.67
648,26032,2160.00
649,26068,2163.33
650,26108,2166.67
651,26152,2170.00
652,26188,2173.33
653,26212,2176.67
654,26232,2180.00
655,26244,2183.33
656,26252,2186.67
657,26256,2190.00
658,26264,2193.33
659,26276,2196.67
660,26296,2200.00
661,26320,2203.33
662,26356,2206.67
663,26392,2210.00
664,26428,2213.33
665,26468,2216.67
666,26504,2220.00
667,26540,2223.33
668,26572,2226.67
669,26604,2230.00
670,26632,2233.33
671,26660,2236.67
672,26684,2240.00
673,26712,2243.33
674,26728,2246.67
675,26712,2250.00
676,26636,2253.33
677,26504,2256.67
678,26356,2260.00
679,26240,2263.33
680,26156,2266.67
681,26120,2270.00
682,26112,2273.33
683,26120,2276.67
684,26132,2280.00
685,26148,2283.33
686,26164,2286.67
687,26192,2290.00
688,26224,2293.33
689,26260,2296.67
690,26288,2300.00
691,26316,2303.33
692,26332,2306.67
693,26344,2310.00
694,26356,2313.33
695,26364,2316.67
696,26384,2320.00
697,26408,2323.33
698,26436,2326.67
699,26460,2330.00
700,26492,2333.33
701,26528,2336.67
702,26560,2340.00
703,26596,2343.33
704,26624,2346.67
705,26652,2350.00
706,26684,2353.33
707,26712,2356.67
708,26732,2360.00
709,26756,2363.33
710,26784,2366.67
711,26812,2370.00
712,26836,2373.33
713,26860,2376.67
714,26884,2380.00
715,26912,2383.33
716,26936,2386.67
717,26960,2390.00
718,26984,2393.33
719,27004,2396.67
720,26988,2400.00
721,26932,2403.33
722,26828,2406.67
723,26724,2410.00
724,26632,2413.33
725,26576,2416.67
726,26556,2420.00
727,26548,2423.33
728,26560,2426.67
729,26568,2430.00
730,26584,2433.33
731,26592,2436.67
732,26604,2440.00
733,26624,2443.33
734,26648,2446.67
735,26664,2450.00
736,26680,2453.33
737,26692,2456.67
738,26696,2460.00
739,26704,2463.33
740,26712,2466.67
741,26720,2470.00
742,26740,2473.33
743,26756,2476.67
744,26776,2480.00
745,26796,2483.33
746,26820,2486.67
747,26844,2490.00
748,26872,2493.33
749,26896,2496.67
750,26916,2500.00
751,26936,2503.33
752,26956,2506.67
753,26976,2510.00
754,26996,2513.33
755,27012,2516.67
756,27032,2520.00
757,27052,2523.33
758,27072,2526.67
759,27096,2530.00
760,27116,2533.33
761,27140,2536.67
762,27156,2540.00
763,27176,2543.33
764,27192,2546.67
765,27208,2550.00
766,27220,2553.33
767,27236,2556.67
768,27236,2560.00
769,27208,2563.33
770,27144,2566.67
771,27064,2570.00
772,26996,2573.33
773,26944,2576.67
774,26920,2580.00
775,26916,2583.33
776,26916,2586.67
777,26928,2590.00
778,26936,2593.33
779,26948,2596.67
780,26960,2600.00
781,26972,2603.33
782,26992,2606.67
783,27008,2610.00
784,27028,2613.33
785,27044,2616.67
786,27056,2620.00
787,27068,2623.33
788,27084,2626.67
789,27100,2630.00
790,27116,2633.33
791,27132,2636.67
792,27152,2640.00
793,27168,2643.33
794,27188,2646.67
795,27208,2650.00
796,27228,2653.33
797,27248,2656.67
798,27268,2660.00
799,27288,2663.33
800,27300,2666.67
801,27320,2670.00
802,27336,2673.33
803,27348,2676.67
804,27368,2680.00
805,27388,2683.33
806,27404,2686.67
807,27416,2690.00
808,27436,2693.33
809,27452,2696.67
810,27472,2700.00
811,27488,2703.33
812,27508,2706.67
813,27524,2710.00
814,27540,2713.33
815,27552,2716.67
816,27544,2720.00
817,27516,2723.33
818,27472,2726.67
819,27424,2730.00
820,27388,2733.33
821,27368,2736.67
822,27368,2740.00
823,27376,2743.33
824,27384,2746.67
825,27392,2750.00
826,27404,2753.33
827,27412,2756.67
828,27424,2760.00
829,27436,2763.33
830,27448,2766.67
831,27460,2770.00
832,27472,2773.33
833,27484,2776.67
834,27492,2780.00
835,27500,2783.33
836,27512,2786.67
837,27520,2790.00
838,27532,2793.33
839,27540,2796.67
840,27556,2800.00
841,27568,2803.33
842,27584,2806.67
843,27600,2810.00
844,27612,2813.33
845,27628,2816.67
846,27640,2820.00
847,27656,2823.33
848,27668,2826.67
849,27680,2830.00
850,27692,2833.33
851,27704,2836.67
852,27716,2840.00
853,27724,2843.33
854,27736,2846.67
855,27752,2850.00
856,27764,2853.33
857,27780,2856.67
858,27792,2860.00
859,27804,2863.33
860,27820,2866.67
861,27828,2870.00
862,27816,2873.33
863,27788,2876.67
864,27748,2880.00
865,27720,2883.33
866,27704,2886.67
867,27700,2890.00
868,27712,2893.33
869,27724,2896.67
870,27736,2900.00
871,27744,2903.33
872,27752,2906.67
873,27756,2910.00
874,27764,2913.33
875,27772,2916.67
876,27780,2920.00
877,27784,2923.33
878,27792,2926.67
879,27796,2930.00
880,27800,2933.33
881,27804,2936.67
882,27812,2940.00
883,27824,2943.33
884,27832,2946.67
885,27844,2950.00
886,27856,2953.33
887,27864,2956.67
888,27872,2960.00
889,27884,2963.33
890,27892,2966.67
891,27904,2970.00
892,27912,2973.33
893,27924,2976.67
894,27932,2980.00
895,27936,2983.33
896,27948,2986.67
897,27956,2990.00
898,27964,2993.33
899,27968,2996.67
900,27984,3000.00
901,27992,3003.33
902,28000,3006.67
903,28012,3010.00
904,28020,3013.33
905,28024,3016.67
906,28016,3020.00
907,27988,3023.33
908,27956,3026.67
909,27936,3030.00
910,27928,3033.33
911,27928,3036.67
912,27936,3040.00
913,27948,3043.33
914,27956,3046.67
915,27964,3050.00
916,27968,3053.33
917,27976,3056.67
918,27988,3060.00
919,27992,3063.33
920,27996,3066.67
921,28000,3070.00
922,28004,3073.33
923,28004,3076.67
924,28008,3080.00
925,28008,3083.33
926,28012,3086.67
927,28020,3090.00
928,28028,3093.33
929,28036,3096.67
930,28040,3100.00
931,28048,3103.33
932,28056,3106.67
933,28068,3110.00
934,28072,3113.33
935,28080,3116.67
936,28088,3120.00
937,28092,3123.33
938,28100,3126.67
939,28108,3130.00
940,28116,3133.33
941,28128,3136.67
942,28132,3140.00
943,28144,3143.33
944,28148,3146.67
945,28156,3150.00
946,28160,3153.33
947,28160,3156.67
948,28140,3160.00
949,28112,3163.33
950,28088,3166.67
951,28072,3170.00
952,28064,3173.33
953,28068,3176.67
954,28076,3180.00
955,28084,3183.33
956,28092,3186.67
957,28100,3190.00
958,28100,3193.33
959,28096,3196.67
960,28096,3200.00
961,28104,3203.33
962,28104,3206.67
963,28108,3210.00
964,28112,3213.33
965,28108,3216.67
966,28108,3220.00
967,28104,3223.33
968,28108,3226.67
969,28104,3230.00
970,28108,3233.33
971,28116,3236.67
972,28120,3240.00
973,28132,3243.33
974,28136,3246.67
975,28140,3250.00
976,28152,3253.33
977,28156,3256.67
978,28164,3260.00
979,28168,3263.33
980,28180,3266.67
981,28184,3270.00
982,28188,3273.33
983,28196,3276.67
984,28204,3280.00
985,28208,3283.33
986,28216,3286.67
987,28220,3290.00
988,28208,3293.33
989,28176,3296.67
990,28148,3300.00
991,28124,3303.33
992,28108,3306.67
993,28104,3310.00
994,28100,3313.33
995,28104,3316.67
996,28108,3320.00
997,28108,3323.33
998,28112,3326.67
999,28112,3330.00
1000,28116,3333.33
1001,28120,3336.67
1002,28120,3340.00
1003,28120,3343.33
1004,28116,3346.67
1005,28108,3350.00
1006,28104,3353.33
1007,28096,3356.67
1008,28096,3360.00
1009,28092,3363.33
1010,28092,3366.67
1011,28092,3370.00
1012,28100,3373.33
1013,28104,3376.67
1014,28108,3380.00
1015,28108,3383.33
1016,28112,3386.67
1017,28116,3390.00
1018,28120,3393.33
1019,28120,3396.67
1020,28124,3400.00
1021,28124,3403.33
1022,28132,3406.67
1023,28136,3410.00
1024,28136,3413.33
1025,28144,3416.67
1026,28152,3420.00
1027,28156,3423.33
1028,28160,3426.67
1029,28148,3430.00
1030,28120,3433.33
1031,28076,3436.67
1032,28036,3440.00
1033,28004,3443.33
1034,27988,3446.67
1035,27988,3450.00
1036,27988,3453.33
1037,27984,3456.67
1038,27980,3460.00
1039,27980,3463.33
1040,27976,3466.67
1041,27972,3470.00
1042,27976,3473.33
1043,27976,3476.67
1044,27968,3480.00
1045,27968,3483.33
1046,27964,3486.67
1047,27956,3490.00
1048,27948,3493.33
1049,27948,3496.67
1050,27948,3500.00
1051,27944,3503.33
1052,27944,3506.67
1053,27940,3510.00
1054,27952,3513.33
1055,27948,3516.67
1056,27952,3520.00
1057,27952,3523.33
1058,27952,3526.67
1059,27956,3530.00
1060,27964,3533.33
1061,27964,3536.67
1062,27972,3540.00
1063,27972,3543.33
1064,27980,3546.67
1065,27980,3550.00
1066,27984,3553.33
1067,27992,3556.67
1068,28000,3560.00
1069,28004,3563.33
1070,28012,3566.67
1071,28012,3570.00
1072,27992,3573.33
1073,27952,3576.67
1074,27904,3580.00
1075,27860,3583.33
1076,27828,3586.67
1077,27808,3590.00
1078,27800,3593.33
1079,27796,3596.67
1080,27792,3600.00
1081,27788,3603.33
1082,27784,3606.67
1083,27780,3610.00
1084,27784,3613.33
1085,27788,3616.67
1086,27792,3620.00
1087,27788,3623.33
1088,27788,3626.67
1089,27784,3630.00
1090,27780,3633.33
1091,27776,3636.67
1092,27772,3640.00
1093,27772,3643.33
1094,27776,3646.67
1095,27780,3650.00
1096,27784,3653.33
1097,27792,3656.67
1098,27800,3660.00
1099,27808,3663.33
1100,27816,3666.67
1101,27824,3670.00
1102,27828,3673.33
1103,27836,3676.67
1104,27840,3680.00
1105,27844,3683.33
1106,27848,3686.67
1107,27852,3690.00
1108,27860,3693.33
1109,27868,3696.67
1110,27876,3700.00
1111,27880,3703.33
1112,27888,3706.67
1113,27900,3710.00
1114,27908,3713.33
1115,27916,3716.67
1116,27924,3720.00
1117,27920,3723.33
1118,27892,3726.67
1119,27840,3730.00
1120,27788,3733.33
1121,27736,3736.67
1122,27708,3740.00
1123,27688,3743.33
1124,27684,3746.67
1125,27684,3750.00
1126,27680,3753.33
1127,27680,3756.67
1128,27676,3760.00
1129,27676,3763.33
1130,27684,3766.67
1131,27688,3770.00
1132,27692,3773.33
1133,27696,3776.67
1134,27692,3780.00
1135,27696,3783.33
1136,27696,3786.67
1137,27692,3790.00
1138,27700,3793.33
1139,27704,3796.67
1140,27716,3800.00
1141,27720,3803.33
1142,27728,3806.67
1143,27732,3810.00
1144,27748,3813.33
1145,27756,3816.67
1146,27764,3820.00
1147,27776,3823.33
1148,27784,3826.67
1149,27792,3830.00
1150,27800,3833.33
1151,27808,3836.67
1152,27816,3840.00
1153,27820,3843.33
1154,27824,3846.67
1155,27832,3850.00
1156,27836,3853.33
1157,27848,3856.67
1158,27860,3860.00
1159,27868,3863.33
1160,27876,3866.67
1161,27884,3870.00
1162,27896,3873.33
1163,27904,3876.67
1164,27912,3880.00
1165,27892,3883.33
1166,27848,3886.67
1167,27792,3890.00
1168,27736,3893.33
1169,27696,3896.67
1170,27672,3900.00
1171,27652,3903.33
1172,27648,3906.67
1173,27652,3910.00
1174,27652,3913.33
1175,27644,3916.67
1176,27644,3920.00
1177,27648,3923.33
1178,27652,3926.67
1179,27656,3930.00
1180,27668,3933.33
1181,27664,3936.67
1182,27664,3940.00
1183,27664,3943.33
1184,27660,3946.67
1185,27660,3950.00
1186,27656,3953.33
1187,27664,3956.67
1188,27672,3960.00
1189,27680,3963.33
1190,27692,3966.67
1191,27700,3970.00
1192,27716,3973.33
1193,27724,3976.67
1194,27732,3980.00
1195,27740,3983.33
1196,27752,3986.67
1197,27756,3990.00
1198,27768,3993.33
1199,27776,3996.67
1200,27784,4000.00
1201,27788,4003.33
1202,27800,4006.67
1203,27816,4010.00
1204,27820,4013.33
1205,27836,4016.67
1206,27844,4020.00
1207,27852,4023.33
1208,27864,4026.67
1209,27876,4030.00
1210,27880,4033.33
1211,27868,4036.67
1212,27828,4040.00
1213,27768,4043.33
1214,27700,4046.67
1215,27648,4050.00
1216,27616,4053.33
1217,27596,4056.67
1218,27588,4060.00
1219,27580,4063.33
1220,27584,4066.67
1221,27580,4070.00
1222,27576,4073.33
1223,27584,4076.67
1224,27588,4080.00
1225,27596,4083.33
1226,27600,4086.67
1227,27596,4090.00
1228,27592,4093.33
1229,27588,4096.67
1230,27580,4100.00
1231,27580,4103.33
1232,27584,4106.67
1233,27588,4110.00
1234,27592,4113.33
1235,27604,4116.67
1236,27612,4120.00
1237,27624,4123.33
1238,27632,4126.67
1239,27644,4130.00
1240,27656,4133.33
1241,27660,4136.67
1242,27668,4140.00
1243,27676,4143.33
1244,27688,4146.67
1245,27688,4150.00
1246,27696,4153.33
1247,27704,4156.67
1248,27716,4160.00
1249,27724,4163.33
1250,27728,4166.67
1251,27740,4170.00
1252,27752,4173.33
1253,27760,4176.67
1254,27768,4180.00
1255,27780,4183.33
1256,27788,4186.67
1257,27796,4190.00
1258,27804,4193.33
1259,27816,4196.67
1260,27828,4200.00
1261,27840,4203.33
1262,27828,4206.67
1263,27784,4210.00
1264,27716,4213.33
1265,27640,4216.67
1266,27572,4220.00
1267,27516,4223.33
1268,27484,4226.67
1269,27468,4230.00
1270,27464,4233.33
1271,27460,4236.67
1272,27460,4240.00
1273,27456,4243.33
1274,27452,4246.67
1275,27460,4250.00
1276,27468,4253.33
1277,27472,4256.67
1278,27472,4260.00
1279,27468,4263.33
1280,27464,4266.67
1281,27456,4270.00
1282,27456,4273.33
1283,27460,4276.67
1284,27460,4280.00
1285,27468,4283.33
1286,27480,4286.67
1287,27488,4290.00
1288,27500,4293.33
1289,27512,4296.67
1290,27520,4300.00
1291,27532,4303.33
1292,27544,4306.67
1293,27552,4310.00
1294,27556,4313.33
1295,27568,4316.67
1296,27576,4320.00
1297,27588,4323.33
1298,27600,4326.67
1299,27608,4330.00
1300,27624,4333.33
1301,27636,4336.67
1302,27648,4340.00
1303,27656,4343.33
1304,27664,4346.67
1305,27676,4350.00
1306,27692,4353.33
1307,27700,4356.67
1308,27716,4360.00
1309,27728,4363.33
1310,27740,4366.67
1311,27748,4370.00
1312,27764,4373.33
1313,27784,4376.67
1314,27784,4380.00
1315,27764,4383.33
1316,27708,4386.67
1317,27628,4390.00
1318,27544,4393.33
1319,27464,4396.67
1320,27412,4400.00
1321,27384,4403.33
1322,27368,4406.67
1323,27364,4410.00
1324,27364,4413.33
1325,27360,4416.67
1326,27356,4420.00
1327,27356,4423.33
1328,27364,4426.67
1329,27368,4430.00
1330,27376,4433.33
1331,27376,4436.67
1332,27372,4440.00
1333,27368,4443.33
1334,27368,4446.67
1335,27368,4450.00
1336,27368,4453.33
1337,27368,4456.67
1338,27380,4460.00
1339,27396,4463.33
1340,27412,4466.67
1341,27424,4470.00
1342,27432,4473.33
1343,27436,4476.67
1344,27448,4480.00
1345,27456,4483.33
1346,27464,4486.67
1347,27468,4490.00
1348,27476,4493.33
1349,27488,4496.67
1350,27496,4500.00
1351,27504,4503.33
1352,27512,4506.67
1353,27520,4510.00
1354,27532,4513.33
1355,27548,4516.67
1356,27552,4520.00
1357,27564,4523.33
1358,27576,4526.67
1359,27588,4530.00
1360,27600,4533.33
1361,27620,4536.67
1362,27632,4540.00
1363,27644,4543.33
1364,27660,4546.67
1365,27676,4550.00
1366,27692,4553.33
1367,27684,4556.67
1368,27644,4560.00
1369,27572,4563.33
1370,27476,4566.67
1371,27380,4570.00
1372,27308,4573.33
1373,27256,4576.67
1374,27232,4580.00
1375,27224,4583.33
1376,27228,4586.67
1377,27228,4590.00
1378,27224,4593.33
1379,27228,4596.67
1380,27232,4600.00
1381,27244,4603.33
1382,27256,4606.67
1383,27264,4610.00
1384,27268,4613.33
1385,27264,4616.67
1386,27260,4620.00
1387,27264,4623.33
1388,27264,4626.67
1389,27264,4630.00
1390,27276,4633.33
1391,27280,4636.67
1392,27296,4640.00
1393,27312,4643.33
1394,27324,4646.67
1395,27340,4650.00
1396,27352,4653.33
1397,27368,4656.67
1398,27380,4660.00
1399,27396,4663.33
1400,27408,4666.67
1401,27420,4670.00
1402,27432,4673.33
1403,27440,4676.67
1404,27452,4680.00
1405,27464,4683.33
1406,27476,4686.67
1407,27488,4690.00
1408,27504,4693.33
1409,27516,4696.67
1410,27532,4700.00
1411,27548,4703.33
1412,27560,4706.67
1413,27576,4710.00
1414,27592,4713.33
1415,27608,4716.67
1416,27620,4720.00
1417,27628,4723.33
1418,27644,4726.67
1419,27656,4730.00
1420,27664,4733.33
1421,27640,4736.67
1422,27580,4740.00
1423,27488,4743.33
1424,27380,4746.67
1425,27288,4750.00
1426,27228,4753.33
1427,27188,4756.67
1428,27172,4760.00
1429,27164,4763.33
1430,27168,4766.67
1431,27172,4770.00
1432,27176,4773.33
1433,27184,4776.67
1434,27200,4780.00
1435,27212,4783.33
1436,27220,4786.67
1437,27224,4790.00
1438,27224,4793.33
1439,27224,4796.67
1440,27228,4800.00
1441,27228,4803.33
1442,27224,4806.67
1443,27232,4810.00
1444,27244,4813.33
1445,27256,4816.67
1446,27276,4820.00
1447,27292,4823.33
1448,27312,4826.67
1449,27332,4830.00
1450,27352,4833.33
1451,27368,4836.67
1452,27380,4840.00
1453,27392,4843.33
1454,27404,4846.67
1455,27420,4850.00
1456,27432,4853.33
1457,27444,4856.67
1458,27456,4860.00
1459,27468,4863.33
1460,27484,4866.67
1461,27500,4870.00
1462,27512,4873.33
1463,27528,4876.67
1464,27544,4880.00
1465,27560,4883.33
1466,27572,4886.67
1467,27588,4890.00
1468,27600,4893.33
1469,27616,4896.67
1470,27632,4900.00
1471,27648,4903.33
1472,27644,4906.67
1473,27608,4910.00
1474,27528,4913.33
1475,27420,4916.67
1476,27312,4920.00
1477,27224,4923.33
1478,27176,4926.67
1479,27148,4930.00
1480,27140,4933.33
1481,27144,4936.67
1482,27152,4940.00
1483,27160,4943.33
1484,27172,4946.67
1485,27188,4950.00
1486,27200,4953.33
1487,27208,4956.67
1488,27212,4960.00
1489,27208,4963.33
1490,27208,4966.67
1491,27196,4970.00
1492,27188,4973.33
1493,27184,4976.67
1494,27188,4980.00
1495,27196,4983.33
1496,27208,4986.67
1497,27224,4990.00
1498,27244,4993.33
1499,27264,4996.67
1500,27284,5000.00
1501,27308,5003.33
1502,27324,5006.67
1503,27336,5010.00
1504,27352,5013.33
1505,27368,5016.67
1506,27380,5020.00
1507,27396,5023.33
1508,27416,5026.67
1509,27428,5030.00
1510,27440,5033.33
1511,27460,5036.67
1512,27472,5040.00
1513,27488,5043.33
1514,27496,5046.67
1515,27520,5050.00
1516,27536,5053.33
1517,27548,5056.67
1518,27536,5060.00
1519,27476,5063.33
1520,27388,5066.67
1521,27284,5070.00
1522,27188,5073.33
1523,27120,5076.67
1524,27084,5080.00
1525,27072,5083.33
1526,27076,5086.67
1527,27088,5090.00
1528,27100,5093.33
1529,27116,5096.67
1530,27132,5100.00
1531,27152,5103.33
1532,27164,5106.67
1533,27176,5110.00
1534,27184,5113.33
1535,27184,5116.67
1536,27176,5120.00
1537,27168,5123.33
1538,27168,5126.67
1539,27168,5130.00
1540,27180,5133.33
1541,27192,5136.67
1542,27208,5140.00
1543,27224,5143.33
1544,27244,5146.67
1545,27264,5150.00
1546,27284,5153.33
1547,27300,5156.67
1548,27316,5160.00
1549,27332,5163.33
1550,27344,5166.67
1551,27360,5170.00
1552,27372,5173.33
1553,27384,5176.67
1554,27396,5180.00
1555,27404,5183.33
1556,27420,5186.67
1557,27436,5190.00
1558,27452,5193.33
1559,27464,5196.67
1560,27480,5200.00
1561,27492,5203.33
1562,27504,5206.67
1563,27524,5210.00
1564,27528,5213.33
1565,27488,5216.67
1566,27408,5220.00
1567,27292,5223.33
1568,27172,5226.67
1569,27076,5230.00
1570,27012,5233.33
1571,26988,5236.67
1572,26984,5240.00
1573,26992,5243.33
1574,27008,5246.67
1575,27020,5250.00
1576,27028,5253.33
1577,27044,5256.67
1578,27056,5260.00
1579,27072,5263.33
1580,27084,5266.67
1581,27092,5270.00
1582,27096,5273.33
1583,27092,5276.67
1584,27088,5280.00
1585,27092,5283.33
1586,27096,5286.67
1587,27108,5290.00
1588,27120,5293.33
1589,27140,5296.67
1590,27160,5300.00
1591,27176,5303.33
1592,27200,5306.67
1593,27216,5310.00
1594,27236,5313.33
1595,27252,5316.67
1596,27268,5320.00
1597,27284,5323.33
1598,27300,5326.67
1599,27312,5330.00
1600,27324,5333.33
1601,27340,5336.67
1602,27352,5340.00
1603,27364,5343.33
1604,27376,5346.67
1605,27396,5350.00
1606,27412,5353.33
1607,27432,5356.67
1608,27448,5360.00
1609,27464,5363.33
1610,27488,5366.67
1611,27504,5370.00
1612,27524,5373.33
1613,27504,5376.67
1614,27436,5380.00
1615,27324,5383.33
1616,27192,5386.67
1617,27072,5390.00
1618,26992,5393.33
1619,26952,5396.67
1620,26944,5400.00
1621,26952,5403.33
1622,26964,5406.67
1623,26976,5410.00
1624,26984,5413.33
1625,26992,5416.67
1626,27008,5420.00
1627,27024,5423.33
1628,27036,5426.67
1629,27044,5430.00
1630,27044,5433.33
1631,27040,5436.67
1632,27036,5440.00
1633,27040,5443.33
1634,27044,5446.67
1635,27048,5450.00
1636,27068,5453.33
1637,27084,5456.67
1638,27100,5460.00
1639,27116,5463.33
1640,27136,5466.67
1641,27156,5470.00
1642,27176,5473.33
1643,27188,5476.67
1644,27208,5480.00
1645,27224,5483.33
1646,27240,5486.67
1647,27252,5490.00
1648,27268,5493.33
1649,27280,5496.67
1650,27292,5500.00
1651,27308,5503.33
1652,27320,5506.67
1653,27336,5510.00
1654,27352,5513.33
1655,27372,5516.67
1656,27388,5520.00
1657,27404,5523.33
1658,27420,5526.67
1659,27440,5530.00
1660,27456,5533.33
1661,27468,5536.67
1662,27484,5540.00
1663,27500,5543.33
1664,27512,5546.67
1665,27488,5550.00
1666,27416,5553.33
1667,27288,5556.67
1668,27144,5560.00
1669,27008,5563.33
1670,26912,5566.67
1671,26864,5570.00
1672,26844,5573.33
1673,26852,5576.67
1674,26860,5580.00
1675,26864,5583.33
1676,26868,5586.67
1677,26876,5590.00
1678,26884,5593.33
1679,26896,5596.67
1680,26912,5600.00
1681,26920,5603.33
1682,26920,5606.67
1683,26920,5610.00
1684,26920,5613.33
1685,26920,5616.67
1686,26916,5620.00
1687,26928,5623.33
1688,26940,5626.67
1689,26952,5630.00
1690,26972,5633.33
1691,26992,5636.67
1692,27012,5640.00
1693,27036,5643.33
1694,27052,5646.67
1695,27072,5650.00
1696,27092,5653.33
1697,27104,5656.67
1698,27124,5660.00
1699,27136,5663.33
1700,27144,5666.67
1701,27152,5670.00
1702,27168,5673.33
1703,27184,5676.67
1704,27200,5680.00
1705,27216,5683.33
1706,27236,5686.67
1707,27248,5690.00
1708,27268,5693.33
1709,27284,5696.67
1710,27300,5700.00
1711,27320,5703.33
1712,27336,5706.67
1713,27356,5710.00
1714,27372,5713.33
1715,27392,5716.67
1716,27408,5720.00
1717,27420,5723.33
1718,27396,5726.67
1719,27316,5730.00
1720,27188,5733.33
1721,27040,5736.67
1722,26908,5740.00
1723,26812,5743.33
1724,26768,5746.67
1725,26756,5750.00
1726,26760,5753.33
1727,26776,5756.67
1728,26788,5760.00
1729,26800,5763.33
1730,26804,5766.67
1731,26820,5770.00
1732,26832,5773.33
1733,26848,5776.67
1734,26848,5780.00
1735,26848,5783.33
1736,26844,5786.67
1737,26832,5790.00
1738,26828,5793.33
1739,26832,5796.67
1740,26836,5800.00
1741,26848,5803.33
1742,26860,5806.67
1743,26884,5810.00
1744,26908,5813.33
1745,26932,5816.67
1746,26948,5820.00
1747,26968,5823.33
1748,26984,5826.67
1749,27004,5830.00
1750,27020,5833.33
1751,27032,5836.67
1752,27044,5840.00
1753,27060,5843.33
1754,27072,5846.67
1755,27088,5850.00
1756,27108,5853.33
1757,27116,5856.67
1758,27136,5860.00
1759,27152,5863.33
1760,27168,5866.67
1761,27184,5870.00
1762,27204,5873.33
1763,27216,5876.67
1764,27236,5880.00
1765,27252,5883.33
1766,27280,5886.67
1767,27284,5890.00
1768,27248,5893.33
1769,27156,5896.67
1770,27020,5900.00
1771,26872,5903.33
1772,26752,5906.67
1773,26680,5910.00
1774,26652,5913.33
1775,26656,5916.67
1776,26676,5920.00
1777,26696,5923.33
1778,26712,5926.67
1779,26720,5930.00
1780,26736,5933.33
1781,26752,5936.67
1782,26768,5940.00
1783,26776,5943.33
1784,26776,5946.67
1785,26768,5950.00
1786,26760,5953.33
1787,26756,5956.67
1788,26752,5960.00
1789,26760,5963.33
1790,26776,5966.67
1791,26796,5970.00
1792,26824,5973.33
1793,26852,5976.67
1794,26876,5980.00
1795,26900,5983.33
1796,26920,5986.67
1797,26944,5990.00
1798,26964,5993.33
1799,26980,5996.67
1800,26996,6000.00
1801,27016,6003.33
1802,27036,6006.67
1803,27048,6010.00
1804,27068,6013.33
1805,27088,6016.67
1806,27104,6020.00
1807,27124,6023.33
1808,27144,6026.67
1809,27160,6030.00
1810,27180,6033.33
1811,27196,6036.67
1812,27216,6040.00
1813,27232,6043.33
1814,27252,6046.67
1815,27272,6050.00
1816,27296,6053.33
1817,27308,6056.67
1818,27280,6060.00
1819,27188,6063.33
1820,27052,6066.67
1821,26892,6070.00
1822,26756,6073.33
1823,26672,6076.67
1824,26644,6080.00
1825,26644,6083.33
1826,26660,6086.67
1827,26676,6090.00
1828,26692,6093.33
1829,26700,6096.67
1830,26708,6100.00
1831,26732,6103.33
1832,26744,6106.67
1833,26756,6110.00
1834,26760,6113.33
1835,26760,6116.67
1836,26748,6120.00
1837,26748,6123.33
1838,26744,6126.67
1839,26752,6130.00
1840,26764,6133.33
1841,26784,6136.67
1842,26804,6140.00
1843,26832,6143.33
1844,26856,6146.67
1845,26884,6150.00
1846,26904,6153.33
1847,26928,6156.67
1848,26948,6160.00
1849,26972,6163.33
1850,26992,6166.67
1851,27008,6170.00
1852,27028,6173.33
1853,27044,6176.67
1854,27060,6180.00
1855,27080,6183.33
1856,27096,6186.67
1857,27108,6190.00
1858,27124,6193.33
1859,27144,6196.67
1860,27164,6200.00
1861,27184,6203.33
1862,27204,6206.67
1863,27224,6210.00
1864,27240,6213.33
1865,27260,6216.67
1866,27280,6220.00
1867,27296,6223.33
1868,27308,6226.67
1869,27288,6230.00
1870,27212,6233.33
1871,27076,6236.67
1872,26908,6240.00
1873,26752,6243.33
1874,26644,6246.67
1875,26588,6250.00
1876,26572,6253.33
1877,26580,6256.67
1878,26596,6260.00
1879,26608,6263.33
1880,26616,6266.67
1881,26624,6270.00
1882,26636,6273.33
1883,26648,6276.67
1884,26664,6280.00
1885,26672,6283.33
1886,26676,6286.67
1887,26676,6290.00
1888,26676,6293.33
1889,26676,6296.67
1890,26680,6300.00
1891,26692,6303.33
1892,26708,6306.67
1893,26732,6310.00
1894,26756,6313.33
1895,26788,6316.67
1896,26812,6320.00
1897,26840,6323.33
1898,26872,6326.67
1899,26896,6330.00
1900,26920,6333.33
1901,26944,6336.67
1902,26968,6340.00
1903,26988,6343.33
1904,27004,6346.67
1905,27024,6350.00
1906,27044,6353.33
1907,27064,6356.67
1908,27080,6360.00
1909,27096,6363.33
1910,27120,6366.67
1911,27140,6370.00
1912,27160,6373.33
1913,27180,6376.67
1914,27200,6380.00
1915,27224,6383.33
1916,27240,6386.67
1917,27264,6390.00
1918,27280,6393.33
1919,27272,6396.67
1920,27200,6400.00
1921,27068,6403.33
1922,26912,6406.67
1923,26760,6410.00
1924,26648,6413.33
1925,26592,6416.67
1926,26576,6420.00
1927,26584,6423.33
1928,26604,6426.67
1929,26624,6430.00
1930,26640,6433.33
1931,26652,6436.67
1932,26664,6440.00
1933,26684,6443.33
1934,26700,6446.67
1935,26708,6450.00
1936,26712,6453.33
1937,26712,6456.67
1938,26708,6460.00
1939,26708,6463.33
1940,26704,6466.67
1941,26712,6470.00
1942,26728,6473.33
1943,26748,6476.67
1944,26776,6480.00
1945,26800,6483.33
1946,26828,6486.67
1947,26856,6490.00
1948,26884,6493.33
1949,26908,6496.67
1950,26932,6500.00
1951,26948,6503.33
1952,26972,6506.67
1953,26992,6510.00
1954,27008,6513.33
1955,27028,6516.67
1956,27040,6520.00
1957,27056,6523.33
1958,27076,6526.67
1959,27096,6530.00
1960,27116,6533.33
1961,27136,6536.67
1962,27156,6540.00
1963,27176,6543.33
1964,27200,6546.67
1965,27204,6550.00
1966,27168,6553.33
1967,27068,6556.67
1968,26920,6560.00
1969,26768,6563.33
1970,26652,6566.67
1971,26584,6570.00
1972,26564,6573.33
1973,26568,6576.67
1974,26592,6580.00
1975,26620,6583.33
1976,26640,6586.67
1977,26664,6590.00
1978,26688,6593.33
1979,26716,6596.67
1980,26732,6600.00
1981,26740,6603.33
1982,26740,6606.67
1983,26732,6610.00
1984,26720,6613.33
1985,26712,6616.67
1986,26716,6620.00
1987,26720,6623.33
1988,26736,6626.67
1989,26756,6630.00
1990,26780,6633.33
1991,26804,6636.67
1992,26832,6640.00
1993,26856,6643.33
1994,26884,6646.67
1995,26900,6650.00
1996,26920,6653.33
1997,26944,6656.67
1998,26960,6660.00
1999,26980,6663.33
2000,27000,6666.67
2001,27012,6670.00
2002,27032,6673.33
2003,27048,6676.67
2004,27068,6680.00
2005,27088,6683.33
2006,27104,6686.67
2007,27120,6690.00
2008,27144,6693.33
2009,27168,6696.67
2010,27184,6700.00
2011,27168,6703.33
2012,27084,6706.67
2013,26944,6710.00
2014,26784,6713.33
2015,26644,6716.67
2016,26552,6720.00
2017,26516,6723.33
2018,26516,6726.67
2019,26536,6730.00
2020,26556,6733.33
2021,26580,6736.67
2022,26600,6740.00
2023,26620,6743.33
2024,26644,6746.67
2025,26668,6750.00
2026,26684,6753.33
2027,26696,6756.67
2028,26700,6760.00
2029,26696,6763.33
2030,26692,6766.67
2031,26688,6770.00
2032,26692,6773.33
2033,26708,6776.67
2034,26720,6780.00
2035,26744,6783.33
2036,26776,6786.67
2037,26804,6790.00
2038,26828,6793.33
2039,26856,6796.67
2040,26880,6800.00
2041,26904,6803.33
2042,26920,6806.67
2043,26932,6810.00
2044,26952,6813.33
2045,26968,6816.67
2046,26984,6820.00
2047,26996,6823.33
2048,27016,6826.67
2049,27036,6830.00
2050,27056,6833.33
2051,27072,6836.67
2052,27088,6840.00
2053,27112,6843.33
2054,27136,6846.67
2055,27160,6850.00
2056,27180,6853.33
2057,27156,6856.67
2058,27060,6860.00
2059,26908,6863.33
2060,26736,6866.67
2061,26592,6870.00
2062,26496,6873.33
2063,26460,6876.67
2064,26460,6880.00
2065,26472,6883.33
2066,26488,6886.67
2067,26504,6890.00
2068,26512,6893.33
2069,26520,6896.67
2070,26540,6900.00
2071,26568,6903.33
2072,26592,6906.67
2073,26600,6910.00
2074,26608,6913.33
2075,26604,6916.67
2076,26604,6920.00
2077,26612,6923.33
2078,26612,6926.67
2079,26636,6930.00
2080,26648,6933.33
2081,26672,6936.67
2082,26696,6940.00
2083,26724,6943.33
2084,26756,6946.67
2085,26784,6950.00
2086,26808,6953.33
2087,26824,6956.67
2088,26848,6960.00
2089,26868,6963.33
2090,26884,6966.67
2091,26896,6970.00
2092,26916,6973.33
2093,26928,6976.67
2094,26940,6980.00
2095,26960,6983.33
2096,26980,6986.67
2097,26996,6990.00
2098,27016,6993.33
2099,27032,6996.67
2100,27052,7000.00
2101,27072,7003.33
2102,27092,7006.67
2103,27120,7010.00
2104,27120,7013.33
2105,27056,7016.67
2106,26920,7020.00
2107,26744,7023.33
2108,26572,7026.67
2109,26456,7030.00
2110,26396,7033.33
2111,26380,7036.67
2112,26392,7040.00
2113,26408,7043.33
2114,26420,7046.67
2115,26432,7050.00
2116,26444,7053.33
2117,26460,7056.67
2118,26484,7060.00
2119,26508,7063.33
2120,26524,7066.67
2121,26532,7070.00
2122,26532,7073.33
2123,26532,7076.67
2124,26536,7080.00
2125,26540,7083.33
2126,26544,7086.67
2127,26564,7090.00
2128,26580,7093.33
2129,26604,7096.67
2130,26632,7100.00
2131,26660,7103.33
2132,26680,7106.67
2133,26708,7110.00
2134,26732,7113.33
2135,26756,7116.67
2136,26776,7120.00
2137,26792,7123.33
2138,26812,7126.67
2139,26828,7130.00
2140,26848,7133.33
2141,26864,7136.67
2142,26884,7140.00
2143,26900,7143.33
2144,26916,7146.67
2145,26936,7150.00
2146,26960,7153.33
2147,26980,7156.67
2148,27008,7160.00
2149,27032,7163.33
2150,27044,7166.67
2151,27000,7170.00
2152,26896,7173.33
2153,26732,7176.67
2154,26572,7180.00
2155,26440,7183.33
2156,26372,7186.67
2157,26352,7190.00
2158,26364,7193.33
2159,26388,7196.67
2160,26408,7200.00
2161,26428,7203.33
2162,26444,7206.67
2163,26468,7210.00
2164,26492,7213.33
2165,26508,7216.67
2166,26520,7220.00
2167,26520,7223.33
2168,26508,7226.67
2169,26500,7230.00
2170,26496,7233.33
2171,26504,7236.67
2172,26512,7240.00
2173,26532,7243.33
2174,26556,7246.67
2175,26584,7250.00
2176,26612,7253.33
2177,26636,7256.67
2178,26668,7260.00
2179,26692,7263.33
2180,26712,7266.67
2181,26732,7270.00
2182,26752,7273.33
2183,26772,7276.67
2184,26788,7280.00
2185,26804,7283.33
2186,26820,7286.67
2187,26844,7290.00
2188,26864,7293.33
2189,26884,7296.67
2190,26908,7300.00
2191,26924,7303.33
2192,26940,7306.67
2193,26960,7310.00
2194,26980,7313.33
2195,27004,7316.67
2196,27024,7320.00
2197,27036,7323.33
2198,26992,7326.67
2199,26868,7330.00
2200,26696,7333.33
2201,26520,7336.67
2202,26388,7340.00
2203,26312,7343.33
2204,26288,7346.67
2205,26300,7350.00
2206,26324,7353.33
2207,26348,7356.67
2208,26360,7360.00
2209,26372,7363.33
2210,26396,7366.67
2211,26424,7370.00
2212,26448,7373.33
2213,26468,7376.67
2214,26480,7380.00
2215,26484,7383.33
2216,26480,7386.67
2217,26476,7390.00
2218,26484,7393.33
2219,26488,7396.67
2220,26508,7400.00
2221,26532,7403.33
2222,26564,7406.67
2223,26592,7410.00
2224,26624,7413.33
2225,26656,7416.67
2226,26676,7420.00
2227,26696,7423.33
2228,26716,7426.67
2229,26736,7430.00
2230,26752,7433.33
2231,26764,7436.67
2232,26780,7440.00
2233,26792,7443.33
2234,26816,7446.67
2235,26836,7450.00
2236,26856,7453.33
2237,26880,7456.67
2238,26896,7460.00
2239,26916,7463.33
2240,26936,7466.67
2241,26956,7470.00
2242,26976,7473.33
2243,26992,7476.67
2244,27012,7480.00
2245,27036,7483.33
2246,27052,7486.67
2247,27028,7490.00
2248,26932,7493.33
2249,26764,7496.67
2250,26576,7500.00
2251,26412,7503.33
2252,26308,7506.67
2253,26268,7510.00
2254,26260,7513.33
2255,26276,7516.67
2256,26300,7520.00
2257,26316,7523.33
2258,26328,7526.67
2259,26336,7530.00
2260,26360,7533.33
2261,26384,7536.67
2262,26408,7540.00
2263,26420,7543.33
2264,26432,7546.67
2265,26432,7550.00
2266,26432,7553.33
2267,26436,7556.67
2268,26444,7560.00
2269,26456,7563.33
2270,26484,7566.67
2271,26512,7570.00
2272,26540,7573.33
2273,26572,7576.67
2274,26604,7580.00
2275,26632,7583.33
2276,26656,7586.67
2277,26684,7590.00
2278,26708,7593.33
2279,26728,7596.67
2280,26748,7600.00
2281,26768,7603.33
2282,26780,7606.67
2283,26800,7610.00
2284,26816,7613.33
2285,26832,7616.67
2286,26852,7620.00
2287,26872,7623.33
2288,26892,7626.67
2289,26912,7630.00
2290,26936,7633.33
2291,26956,7636.67
2292,26976,7640.00
2293,26996,7643.33
2294,27020,7646.67
2295,27028,7650.00
2296,26984,7653.33
2297,26868,7656.67
2298,26692,7660.00
2299,26504,7663.33
2300,26356,7666.67
2301,26268,7670.00
2302,26232,7673.33
2303,26232,7676.67
2304,26252,7680.00
2305,26272,7683.33
2306,26292,7686.67
2307,26308,7690.00
2308,26324,7693.33
2309,26352,7696.67
2310,26376,7700.00
2311,26396,7703.33
2312,26412,7706.67
2313,26416,7710.00
2314,26416,7713.33
2315,26416,7716.67
2316,26420,7720.00
2317,26428,7723.33
2318,26448,7726.67
2319,26472,7730.00
2320,26500,7733.33
2321,26528,7736.67
2322,26556,7740.00
2323,26592,7743.33
2324,26620,7746.67
2325,26644,7750.00
2326,26672,7753.33
2327,26688,7756.67
2328,26708,7760.00
2329,26724,7763.33
2330,26744,7766.67
2331,26760,7770.00
2332,26772,7773.33
2333,26792,7776.67
2334,26808,7780.00
2335,26828,7783.33
2336,26840,7786.67
2337,26864,7790.00
2338,26888,7793.33
2339,26912,7796.67
2340,26896,7800.00
2341,26812,7803.33
2342,26672,7806.67
2343,26500,7810.00
2344,26348,7813.33
2345,26248,7816.67
2346,26204,7820.00
2347,26200,7823.33
2348,26224,7826.67
2349,26252,7830.00
2350,26276,7833.33
2351,26300,7836.67
2352,26332,7840.00
2353,26364,7843.33
2354,26388,7846.67
2355,26408,7850.00
2356,26420,7853.33
2357,26416,7856.67
2358,26412,7860.00
2359,26408,7863.33
2360,26408,7866.67
2361,26416,7870.00
2362,26432,7873.33
2363,26460,7876.67
2364,26500,7880.00
2365,26536,7883.33
2366,26572,7886.67
2367,26600,7890.00
2368,26632,7893.33
2369,26656,7896.67
2370,26676,7900.00
2371,26704,7903.33
2372,26728,7906.67
2373,26752,7910.00
2374,26768,7913.33
2375,26784,7916.67
2376,26792,7920.00
2377,26800,7923.33
2378,26820,7926.67
2379,26836,7930.00
2380,26852,7933.33
2381,26836,7936.67
2382,26748,7940.00
2383,26600,7943.33
2384,26428,7946.67
2385,26284,7950.00
2386,26192,7953.33
2387,26152,7956.67
2388,26156,7960.00
2389,26180,7963.33
2390,26208,7966.67
2391,26236,7970.00
2392,26252,7973.33
2393,26272,7976.67
2394,26284,7980.00
2395,26296,7983.33
2396,26304,7986.67
2397,26304,7990.00
2398,26300,7993.33
2399,26292,7996.67
2400,26292,8000.00
2401,26300,8003.33
2402,26312,8006.67
2403,26336,8010.00
2404,26360,8013.33
2405,26392,8016.67
2406,26420,8020.00
2407,26452,8023.33
2408,26484,8026.67
2409,26508,8030.00
2410,26536,8033.33
2411,26564,8036.67
2412,26584,8040.00
2413,26604,8043.33
2414,26612,8046.67
2415,26628,8050.00
2416,26644,8053.33
2417,26656,8056.67
2418,26672,8060.00
2419,26688,8063.33
2420,26660,8066.67
2421,26564,8070.00
2422,26400,8073.33
2423,26224,8076.67
2424,26076,8080.00
2425,25976,8083.33
2426,25936,8086.67
2427,25928,8090.00
2428,25936,8093.33
2429,25952,8096.67
2430,25968,8100.00
2431,25980,8103.33
2432,25984,8106.67
2433,26000,8110.00
2434,26016,8113.33
2435,26024,8116.67
2436,26024,8120.00
2437,26020,8123.33
2438,26020,8126.67
2439,26020,8130.00
2440,26024,8133.33
2441,26036,8136.67
2442,26052,8140.00
2443,26072,8143.33
2444,26100,8146.67
2445,26136,8150.00
2446,26180,8153.33
2447,26216,8156.67
2448,26256,8160.00
2449,26288,8163.33
2450,26320,8166.67
2451,26348,8170.00
2452,26376,8173.33
2453,26404,8176.67
2454,26432,8180.00
2455,26456,8183.33
2456,26456,8186.67
2457,26384,8190.00
2458,26236,8193.33
2459,26052,8196.67
2460,25884,8200.00
2461,25776,8203.33
2462,25728,8206.67
2463,25716,8210.00
2464,25724,8213.33
2465,25744,8216.67
2466,25764,8220.00
2467,25784,8223.33
2468,25800,8226.67
2469,25836,8230.00
2470,25884,8233.33
2471,25924,8236.67
2472,25948,8240.00
2473,25968,8243.33
2474,25972,8246.67
2475,25976,8250.00
2476,25988,8253.33
2477,26004,8256.67
2478,26028,8260.00
2479,26052,8263.33
2480,26080,8266.67
2481,26116,8270.00
2482,26144,8273.33
2483,26176,8276.67
2484,26200,8280.00
2485,26220,8283.33
2486,26244,8286.67
2487,26260,8290.00
2488,26284,8293.33
2489,26308,8296.67
2490,26332,8300.00
2491,26332,8303.33
2492,26272,8306.67
2493,26152,8310.00
2494,25996,8313.33
2495,25856,8316.67
2496,25760,8320.00
2497,25732,8323.33
2498,25732,8326.67
2499,25756,8330.00
2500,25784,8333.33
2501,25808,8336.67
2502,25828,8340.00
2503,25852,8343.33
2504,25892,8346.67
2505,25932,8350.00
2506,25956,8353.33
2507,25968,8356.67
2508,25972,8360.00
2509,25968,8363.33
2510,25964,8366.67
2511,25972,8370.00
2512,25988,8373.33
2513,26012,8376.67
2514,26040,8380.00
2515,26072,8383.33
2516,26096,8386.67
2517,26124,8390.00
2518,26152,8393.33
2519,26188,8396.67
2520,26216,8400.00
2521,26244,8403.33
2522,26268,8406.67
2523,26292,8410.00
2524,26312,8413.33
2525,26328,8416.67
2526,26344,8420.00
2527,26360,8423.33
2528,26380,8426.67
2529,26400,8430.00
2530,26416,8433.33
2531,26372,8436.67
2532,26256,8440.00
2533,26072,8443.33
2534,25892,8446.67
2535,25756,8450.00
2536,25692,8453.33
2537,25684,8456.67
2538,25704,8460.00
2539,25732,8463.33
2540,25748,8466.67
2541,25760,8470.00
2542,25772,8473.33
2543,25792,8476.67
2544,25824,8480.00
2545,25844,8483.33
2546,25868,8486.67
2547,25884,8490.00
2548,25900,8493.33
2549,25904,8496.67
2550,25912,8500.00
2551,25912,8503.33
2552,25924,8506.67
2553,25948,8510.00
2554,25976,8513.33
2555,26008,8516.67
2556,26040,8520.00
2557,26072,8523.33
2558,26108,8526.67
2559,26140,8530.00
2560,26172,8533.33
2561,26192,8536.67
2562,26216,8540.00
2563,26232,8543.33
2564,26248,8546.67
2565,26272,8550.00
2566,26296,8553.33
2567,26320,8556.67
2568,26344,8560.00
2569,26348,8563.33
2570,26284,8566.67
2571,26156,8570.00
2572,25992,8573.33
2573,25852,8576.67
2574,25764,8580.00
2575,25732,8583.33
2576,25740,8586.67
2577,25764,8590.00
2578,25792,8593.33
2579,25812,8596.67
2580,25828,8600.00
2581,25848,8603.33
2582,25880,8606.67
2583,25920,8610.00
2584,25952,8613.33
2585,25980,8616.67
2586,25996,8620.00
2587,26004,8623.33
2588,26004,8626.67
2589,26008,8630.00
2590,26024,8633.33
2591,26044,8636.67
2592,26076,8640.00
2593,26100,8643.33
2594,26132,8646.67
2595,26168,8650.00
2596,26204,8653.33
2597,26240,8656.67
2598,26272,8660.00
2599,26300,8663.33
2600,26324,8666.67
2601,26344,8670.00
2602,26368,8673.33
2603,26392,8676.67
2604,26416,8680.00
2605,26436,8683.33
2606,26456,8686.67
2607,26476,8690.00
2608,26504,8693.33
2609,26532,8696.67
2610,26552,8700.00
2611,26524,8703.33
2612,26428,8706.67
2613,26280,8710.00
2614,26128,8713.33
2615,26012,8716.67
2616,25948,8720.00
2617,25932,8723.33
2618,25936,8726.67
2619,25964,8730.00
2620,25984,8733.33
2621,26000,8736.67
2622,26012,8740.00
2623,26040,8743.33
2624,26076,8746.67
2625,26108,8750.00
2626,26136,8753.33
2627,26156,8756.67
2628,26172,8760.00
2629,26180,8763.33
2630,26196,8766.67
2631,26200,8770.00
2632,26216,8773.33
2633,26236,8776.67
2634,26260,8780.00
2635,26288,8783.33
2636,26316,8786.67
2637,26348,8790.00
2638,26376,8793.33
2639,26404,8796.67
2640,26424,8800.00
2641,26452,8803.33
2642,26476,8806.67
2643,26500,8810.00
2644,26524,8813.33
2645,26544,8816.67
2646,26564,8820.00
2647,26576,8823.33
2648,26600,8826.67
2649,26620,8830.00
2650,26648,8833.33
2651,26664,8836.67
2652,26692,8840.00
2653,26716,8843.33
2654,26740,8846.67
2655,26764,8850.00
2656,26788,8853.33
2657,26820,8856.67
2658,26844,8860.00
2659,26832,8863.33
2660,26756,8866.67
2661,26632,8870.00
2662,26492,8873.33
2663,26372,8876.67
2664,26304,8880.00
2665,26276,8883.33
2666,26276,8886.67
2667,26296,8890.00
2668,26312,8893.33
2669,26324,8896.67
2670,26336,8900.00
2671,26352,8903.33
2672,26376,8906.67
2673,26400,8910.00
2674,26424,8913.33
2675,26432,8916.67
2676,26440,8920.00
2677,26440,8923.33
2678,26440,8926.67
2679,26452,8930.00
2680,26464,8933.33
2681,26484,8936.67
2682,26504,8940.00
2683,26524,8943.33
2684,26552,8946.67
2685,26580,8950.00
2686,26608,8953.33
2687,26628,8956.67
2688,26652,8960.00
2689,26672,8963.33
2690,26696,8966.67
2691,26708,8970.00
2692,26724,8973.33
2693,26748,8976.67
2694,26764,8980.00
2695,26780,8983.33
2696,26800,8986.67
2697,26820,8990.00
2698,26844,8993.33
2699,26864,8996.67
2700,26868,9000.00
2701,26828,9003.33
2702,26740,9006.67
2703,26624,9010.00
2704,26512,9013.33
2705,26424,9016.67
2706,26380,9020.00
2707,26372,9023.33
2708,26376,9026.67
2709,26400,9030.00
2710,26416,9033.33
2711,26436,9036.67
2712,26460,9040.00
2713,26484,9043.33
2714,26508,9046.67
2715,26528,9050.00
2716,26540,9053.33
2717,26544,9056.67
2718,26548,9060.00
2719,26548,9063.33
2720,26548,9066.67
2721,26560,9070.00
2722,26572,9073.33
2723,26588,9076.67
2724,26612,9080.00
2725,26644,9083.33
2726,26672,9086.67
2727,26700,9090.00
2728,26724,9093.33
2729,26748,9096.67
2730,26772,9100.00
2731,26796,9103.33
2732,26816,9106.67
2733,26840,9110.00
2734,26860,9113.33
2735,26880,9116.67
2736,26900,9120.00
2737,26912,9123.33
2738,26932,9126.67
2739,26948,9130.00
2740,26976,9133.33
2741,26992,9136.67
2742,26980,9140.00
2743,26912,9143.33
2744,26804,9146.67
2745,26676,9150.00
2746,26560,9153.33
2747,26488,9156.67
2748,26448,9160.00
2749,26444,9163.33
2750,26456,9166.67
2751,26468,9170.00
2752,26488,9173.33
2753,26504,9176.67
2754,26520,9180.00
2755,26544,9183.33
2756,26560,9186.67
2757,26576,9190.00
2758,26584,9193.33
2759,26588,9196.67
2760,26588,9200.00
2761,26588,9203.33
2762,26592,9206.67
2763,26600,9210.00
2764,26616,9213.33
2765,26636,9216.67
2766,26664,9220.00
2767,26696,9223.33
2768,26720,9226.67
2769,26752,9230.00
2770,26780,9233.33
2771,26808,9236.67
2772,26836,9240.00
2773,26856,9243.33
2774,26880,9246.67
2775,26904,9250.00
2776,26924,9253.33
2777,26940,9256.67
2778,26960,9260.00
2779,26976,9263.33
2780,26996,9266.67
2781,27020,9270.00
2782,27044,9273.33
2783,27056,9276.67
2784,27008,9280.00
2785,26912,9283.33
2786,26784,9286.67
2787,26652,9290.00
2788,26548,9293.33
2789,26488,9296.67
2790,26460,9300.00
2791,26460,9303.33
2792,26472,9306.67
2793,26488,9310.00
2794,26500,9313.33
2795,26516,9316.67
2796,26536,9320.00
2797,26560,9323.33
2798,26580,9326.67
2799,26600,9330.00
2800,26608,9333.33
2801,26616,9336.67
2802,26612,9340.00
2803,26612,9343.33
2804,26616,9346.67
2805,26620,9350.00
2806,26640,9353.33
2807,26660,9356.67
2808,26680,9360.00
2809,26704,9363.33
2810,26736,9366.67
2811,26768,9370.00
2812,26792,9373.33
2813,26812,9376.67
2814,26836,9380.00
2815,26856,9383.33
2816,26872,9386.67
2817,26892,9390.00
2818,26908,9393.33
2819,26928,9396.67
2820,26948,9400.00
2821,26968,9403.33
2822,26992,9406.67
2823,27016,9410.00
2824,27040,9413.33
2825,27064,9416.67
2826,27056,9420.00
2827,26996,9423.33
2828,26880,9426.67
2829,26736,9430.00
2830,26604,9433.33
2831,26508,9436.67
2832,26456,9440.00
2833,26444,9443.33
2834,26460,9446.67
2835,26476,9450.00
2836,26496,9453.33
2837,26516,9456.67
2838,26536,9460.00
2839,26556,9463.33
2840,26576,9466.67
2841,26588,9470.00
2842,26596,9473.33
2843,26600,9476.67
2844,26596,9480.00
2845,26596,9483.33
2846,26592,9486.67
2847,26596,9490.00
2848,26608,9493.33
2849,26624,9496.67
2850,26648,9500.00
2851,26676,9503.33
2852,26704,9506.67
2853,26740,9510.00
2854,26768,9513.33
2855,26796,9516.67
2856,26824,9520.00
2857,26848,9523.33
2858,26872,9526.67
2859,26896,9530.00
2860,26920,9533.33
2861,26944,9536.67
2862,26960,9540.00
2863,26980,9543.33
2864,27008,9546.67
2865,27020,9550.00
2866,26992,9553.33
2867,26900,9556.67
2868,26768,9560.00
2869,26628,9563.33
2870,26512,9566.67
2871,26436,9570.00
2872,26404,9573.33
2873,26404,9576.67
2874,26424,9580.00
2875,26448,9583.33
2876,26464,9586.67
2877,26484,9590.00
2878,26508,9593.33
2879,26532,9596.67
2880,26556,9600.00
2881,26572,9603.33
2882,26580,9606.67
2883,26580,9610.00
2884,26580,9613.33
2885,26584,9616.67
2886,26592,9620.00
2887,26604,9623.33
2888,26620,9626.67
2889,26644,9630.00
2890,26668,9633.33
2891,26692,9636.67
2892,26720,9640.00
2893,26744,9643.33
2894,26776,9646.67
2895,26800,9650.00
2896,26824,9653.33
2897,26848,9656.67
2898,26872,9660.00
2899,26892,9663.33
2900,26912,9666.67
2901,26932,9670.00
2902,26952,9673.33
2903,26972,9676.67
2904,26992,9680.00
2905,27008,9683.33
2906,26984,9686.67
2907,26896,9690.00
2908,26760,9693.33
2909,26604,9696.67
2910,26468,9700.00
2911,26380,9703.33
2912,26344,9706.67
2913,26344,9710.00
2914,26364,9713.33
2915,26384,9716.67
2916,26412,9720.00
2917,26428,9723.33
2918,26456,9726.67
2919,26484,9730.00
2920,26504,9733.33
2921,26520,9736.67
2922,26528,9740.00
2923,26536,9743.33
2924,26540,9746.67
2925,26540,9750.00
2926,26544,9753.33
2927,26564,9756.67
2928,26588,9760.00
2929,26608,9763.33
2930,26636,9766.67
2931,26668,9770.00
2932,26696,9773.33
2933,26732,9776.67
2934,26764,9780.00
2935,26792,9783.33
2936,26824,9786.67
2937,26852,9790.00
2938,26876,9793.33
2939,26900,9796.67
2940,26924,9800.00
2941,26948,9803.33
2942,26968,9806.67
2943,26996,9810.00
2944,27012,9813.33
2945,27032,9816.67
2946,27048,9820.00
2947,27068,9823.33
2948,27060,9826.67
2949,26996,9830.00
2950,26868,9833.33
2951,26700,9836.67
2952,26540,9840.00
2953,26420,9843.33
2954,26356,9846.67
2955,26336,9850.00
2956,26348,9853.33
2957,26376,9856.67
2958,26404,9860.00
2959,26428,9863.33
2960,26456,9866.67
2961,26488,9870.00
2962,26516,9873.33
2963,26532,9876.67
2964,26548,9880.00
2965,26552,9883.33
2966,26556,9886.67
2967,26556,9890.00
2968,26560,9893.33
2969,26564,9896.67
2970,26580,9900.00
2971,26596,9903.33
2972,26624,9906.67
2973,26660,9910.00
2974,26688,9913.33
2975,26720,9916.67
2976,26748,9920.00
2977,26780,9923.33
2978,26812,9926.67
2979,26840,9930.00
2980,26864,9933.33
2981,26888,9936.67
2982,26912,9940.00
2983,26936,9943.33
2984,26960,9946.67
2985,26980,9950.00
2986,27000,9953.33
2987,27016,9956.67
2988,27036,9960.00
2989,27060,9963.33
2990,27080,9966.67
2991,27088,9970.00
2992,27032,9973.33
2993,26908,9976.67
2994,26748,9980.00
2995,26588,9983.33
2996,26468,9986.67
2997,26408,9990.00
2998,26392,9993.33
2999,26404,9996.67
3000,26436,10000.00
3001,26468,10003.33
3002,26504,10006.67
3003,26536,10010.00
3004,26576,10013.33
3005,26600,10016.67
3006,26620,10020.00
3007,26624,10023.33
3008,26624,10026.67
3009,26612,10030.00
3010,26604,10033.33
3011,26600,10036.67
3012,26604,10040.00
3013,26616,10043.33
3014,26636,10046.67
3015,26660,10050.00
3016,26692,10053.33
3017,26720,10056.67
3018,26752,10060.00
3019,26784,10063.33
3020,26812,10066.67
3021,26844,10070.00
3022,26868,10073.33
3023,26888,10076.67
3024,26916,10080.00
3025,26932,10083.33
3026,26952,10086.67
3027,26972,10090.00
3028,26992,10093.33
3029,27012,10096.67
3030,26996,10100.00
3031,26912,10103.33
3032,26772,10106.67
3033,26608,10110.00
3034,26468,10113.33
3035,26380,10116.67
3036,26340,10120.00
3037,26344,10123.33
3038,26372,10126.67
3039,26408,10130.00
3040,26448,10133.33
3041,26476,10136.67
3042,26516,10140.00
3043,26556,10143.33
3044,26584,10146.67
3045,26600,10150.00
3046,26608,10153.33
3047,26612,10156.67
3048,26604,10160.00
3049,26604,10163.33
3050,26600,10166.67
3051,26608,10170.00
3052,26628,10173.33
3053,26656,10176.67
3054,26684,10180.00
3055,26708,10183.33
3056,26736,10186.67
3057,26768,10190.00
3058,26796,10193.33
3059,26816,10196.67
3060,26836,10200.00
3061,26860,10203.33
3062,26884,10206.67
3063,26904,10210.00
3064,26924,10213.33
3065,26944,10216.67
3066,26960,10220.00
3067,26976,10223.33
3068,26992,10226.67
3069,27012,10230.00
3070,27008,10233.33
3071,26936,10236.67
3072,26800,10240.00
3073,26620,10243.33
3074,26448,10246.67
3075,26324,10250.00
3076,26268,10253.33
3077,26252,10256.67
3078,26268,10260.00
3079,26296,10263.33
3080,26324,10266.67
3081,26348,10270.00
3082,26372,10273.33
3083,26400,10276.67
3084,26428,10280.00
3085,26448,10283.33
3086,26464,10286.67
3087,26464,10290.00
3088,26468,10293.33
3089,26468,10296.67
3090,26472,10300.00
3091,26480,10303.33
3092,26496,10306.67
3093,26520,10310.00
3094,26544,10313.33
3095,26580,10316.67
3096,26616,10320.00
3097,26648,10323.33
3098,26680,10326.67
3099,26712,10330.00
3100,26740,10333.33
3101,26764,10336.67
3102,26788,10340.00
3103,26816,10343.33
3104,26836,10346.67
3105,26856,10350.00
3106,26876,10353.33
3107,26892,10356.67
3108,26912,10360.00
3109,26928,10363.33
3110,26948,10366.67
3111,26972,10370.00
3112,26992,10373.33
3113,27000,10376.67
3114,26952,10380.00
3115,26820,10383.33
3116,26644,10386.67
3117,26452,10390.00
3118,26308,10393.33
3119,26228,10396.67
3120,26200,10400.00
3121,26208,10403.33
3122,26232,10406.67
3123,26256,10410.00
3124,26276,10413.33
3125,26296,10416.67
3126,26324,10420.00
3127,26356,10423.33
3128,26380,10426.67
3129,26396,10430.00
3130,26408,10433.33
3131,26412,10436.67
3132,26416,10440.00
3133,26424,10443.33
3134,26432,10446.67
3135,26444,10450.00
3136,26468,10453.33
3137,26496,10456.67
3138,26524,10460.00
3139,26560,10463.33
3140,26596,10466.67
3141,26632,10470.00
3142,26660,10473.33
3143,26692,10476.67
3144,26724,10480.00
3145,26748,10483.33
3146,26772,10486.67
3147,26792,10490.00
3148,26808,10493.33
3149,26832,10496.67
3150,26852,10500.00
3151,26876,10503.33
3152,26892,10506.67
3153,26916,10510.00
3154,26940,10513.33
3155,26964,10516.67
3156,26988,10520.00
3157,27008,10523.33
3158,27028,10526.67
3159,27052,10530.00
3160,27080,10533.33
3161,27100,10536.67
3162,27100,10540.00
3163,27036,10543.33
3164,26888,10546.67
3165,26692,10550.00
3166,26492,10553.33
3167,26336,10556.67
3168,26256,10560.00
3169,26228,10563.33
3170,26236,10566.67
3171,26260,10570.00
3172,26284,10573.33
3173,26304,10576.67
3174,26324,10580.00
3175,26352,10583.33
3176,26384,10586.67
3177,26412,10590.00
3178,26428,10593.33
3179,26440,10596.67
3180,26448,10600.00
3181,26460,10603.33
3182,26468,10606.67
3183,26476,10610.00
3184,26496,10613.33
3185,26516,10616.67
3186,26544,10620.00
3187,26580,10623.33
3188,26616,10626.67
3189,26652,10630.00
3190,26684,10633.33
3191,26716,10636.67
3192,26744,10640.00
3193,26772,10643.33
3194,26792,10646.67
3195,26816,10650.00
3196,26840,10653.33
3197,26864,10656.67
3198,26880,10660.00
3199,26904,10663.33
3200,26924,10666.67
3201,26944,10670.00
3202,26968,10673.33
3203,26984,10676.67
3204,27004,10680.00
3205,27028,10683.33
3206,27052,10686.67
3207,27076,10690.00
3208,27100,10693.33
3209,27124,10696.67
3210,27116,10700.00
3211,27040,10703.33
3212,26892,10706.67
3213,26708,10710.00
3214,26532,10713.33
3215,26404,10716.67
3216,26336,10720.00
3217,26316,10723.33
3218,26328,10726.67
3219,26348,10730.00
3220,26380,10733.33
3221,26408,10736.67
3222,26436,10740.00
3223,26460,10743.33
3224,26484,10746.67
3225,26496,10750.00
3226,26500,10753.33
3227,26496,10756.67
3228,26476,10760.00
3229,26468,10763.33
3230,26460,10766.67
3231,26456,10770.00
3232,26468,10773.33
3233,26488,10776.67
3234,26516,10780.00
3235,26552,10783.33
3236,26584,10786.67
3237,26616,10790.00
3238,26648,10793.33
3239,26676,10796.67
3240,26700,10800.00
3241,26728,10803.33
3242,26752,10806.67
3243,26772,10810.00
3244,26788,10813.33
3245,26812,10816.67
3246,26828,10820.00
3247,26848,10823.33
3248,26864,10826.67
3249,26888,10830.00
3250,26900,10833.33
3251,26920,10836.67
3252,26948,10840.00
3253,26968,10843.33
3254,26936,10846.67
3255,26828,10850.00
3256,26664,10853.33
3257,26488,10856.67
3258,26340,10860.00
3259,26252,10863.33
3260,26220,10866.67
3261,26228,10870.00
3262,26252,10873.33
3263,26288,10876.67
3264,26320,10880.00
3265,26348,10883.33
3266,26380,10886.67
3267,26412,10890.00
3268,26436,10893.33
3269,26444,10896.67
3270,26444,10900.00
3271,26440,10903.33
3272,26428,10906.67
3273,26424,10910.00
3274,26420,10913.33
3275,26428,10916.67
3276,26448,10920.00
3277,26472,10923.33
3278,26500,10926.67
3279,26528,10930.00
3280,26564,10933.33
3281,26592,10936.67
3282,26616,10940.00
3283,26640,10943.33
3284,26668,10946.67
3285,26684,10950.00
3286,26708,10953.33
3287,26724,10956.67
3288,26740,10960.00
3289,26760,10963.33
3290,26776,10966.67
3291,26796,10970.00
3292,26816,10973.33
3293,26832,10976.67
3294,26852,10980.00
3295,26872,10983.33
3296,26888,10986.67
3297,26908,10990.00
3298,26932,10993.33
3299,26956,10996.67
3300,26960,11000.00
3301,26908,11003.33
3302,26772,11006.67
3303,26592,11010.00
3304,26392,11013.33
3305,26240,11016.67
3306,26148,11020.00
3307,26108,11023.33
3308,26108,11026.67
3309,26128,11030.00
3310,26152,11033.33
3311,26168,11036.67
3312,26188,11040.00
3313,26208,11043.33
3314,26236,11046.67
3315,26264,11050.00
3316,26280,11053.33
3317,26292,11056.67
3318,26296,11060.00
3319,26296,11063.33
3320,26300,11066.67
3321,26304,11070.00
3322,26320,11073.33
3323,26336,11076.67
3324,26360,11080.00
3325,26392,11083.33
3326,26424,11086.67
3327,26456,11090.00
3328,26488,11093.33
3329,26520,11096.67
3330,26548,11100.00
3331,26568,11103.33
3332,26592,11106.67
3333,26616,11110.00
3334,26640,11113.33
3335,26660,11116.67
3336,26676,11120.00
3337,26696,11123.33
3338,26712,11126.67
3339,26732,11130.00
3340,26756,11133.33
3341,26776,11136.67
3342,26804,11140.00
3343,26828,11143.33
3344,26852,11146.67
3345,26872,11150.00
3346,26900,11153.33
3347,26924,11156.67
3348,26940,11160.00
3349,26892,11163.33
3350,26768,11166.67
3351,26584,11170.00
3352,26388,11173.33
3353,26232,11176.67
3354,26144,11180.00
3355,26104,11183.33
3356,26100,11186.67
3357,26120,11190.00
3358,26140,11193.33
3359,26164,11196.67
3360,26180,11200.00
3361,26208,11203.33
3362,26232,11206.67
3363,26256,11210.00
3364,26276,11213.33
3365,26288,11216.67
3366,26288,11220.00
3367,26288,11223.33
3368,26292,11226.67
3369,26296,11230.00
3370,26304,11233.33
3371,26328,11236.67
3372,26348,11240.00
3373,26380,11243.33
3374,26412,11246.67
3375,26444,11250.00
3376,26476,11253.33
3377,26512,11256.67
3378,26540,11260.00
3379,26564,11263.33
3380,26588,11266.67
3381,26612,11270.00
3382,26636,11273.33
3383,26648,11276.67
3384,26672,11280.00
3385,26692,11283.33
3386,26716,11286.67
3387,26736,11290.00
3388,26760,11293.33
3389,26780,11296.67
3390,26804,11300.00
3391,26820,11303.33
3392,26844,11306.67
3393,26872,11310.00
3394,26876,11313.33
3395,26820,11316.67
3396,26680,11320.00
3397,26512,11323.33
3398,26336,11326.67
3399,26204,11330.00
3400,26128,11333.33
3401,26108,11336.67
3402,26128,11340.00
3403,26156,11343.33
3404,26188,11346.67
3405,26216,11350.00
3406,26248,11353.33
3407,26280,11356.67
3408,26312,11360.00
3409,26336,11363.33
3410,26348,11366.67
3411,26348,11370.00
3412,26344,11373.33
3413,26340,11376.67
3414,26336,11380.00
3415,26348,11383.33
3416,26364,11386.67
3417,26388,11390.00
3418,26416,11393.33
3419,26444,11396.67
3420,26480,11400.00
3421,26508,11403.33
3422,26540,11406.67
3423,26572,11410.00
3424,26600,11413.33
3425,26620,11416.67
3426,26644,11420.00
3427,26668,11423.33
3428,26684,11426.67
3429,26708,11430.00
3430,26724,11433.33
3431,26740,11436.67
3432,26756,11440.00
3433,26776,11443.33
3434,26800,11446.67
3435,26820,11450.00
3436,26844,11453.33
3437,26804,11456.67
3438,26704,11460.00
3439,26536,11463.33
3440,26360,11466.67
3441,26216,11470.00
3442,26124,11473.33
3443,26084,11476.67
3444,26084,11480.00
3445,26104,11483.33
3446,26128,11486.67
3447,26152,11490.00
3448,26176,11493.33
3449,26204,11496.67
3450,26236,11500.00
3451,26260,11503.33
3452,26276,11506.67
3453,26276,11510.00
3454,26276,11513.33
3455,26272,11516.67
3456,26272,11520.00
3457,26276,11523.33
3458,26284,11526.67
3459,26304,11530.00
3460,26332,11533.33
3461,26364,11536.67
3462,26400,11540.00
3463,26432,11543.33
3464,26468,11546.67
3465,26500,11550.00
3466,26532,11553.33
3467,26560,11556.67
3468,26584,11560.00
3469,26608,11563.33
3470,26632,11566.67
3471,26656,11570.00
3472,26676,11573.33
3473,26696,11576.67
3474,26716,11580.00
3475,26736,11583.33
3476,26760,11586.67
3477,26780,11590.00
3478,26800,11593.33
3479,26824,11596.67
3480,26844,11600.00
3481,26840,11603.33
3482,26776,11606.67
3483,26632,11610.00
3484,26432,11613.33
3485,26240,11616.67
3486,26096,11620.00
3487,26016,11623.33
3488,25992,11626.67
3489,25992,11630.00
3490,26008,11633.33
3491,26024,11636.67
3492,26032,11640.00
3493,26032,11643.33
3494,26032,11646.67
3495,26036,11650.00
3496,26052,11653.33
3497,26060,11656.67
3498,26072,11660.00
3499,26076,11663.33
3500,26076,11666.67
3501,26072,11670.00
3502,26068,11673.33
3503,26072,11676.67
3504,26088,11680.00
3505,26112,11683.33
3506,26140,11686.67
3507,26172,11690.00
3508,26196,11693.33
3509,26220,11696.67
3510,26240,11700.00
3511,26260,11703.33
3512,26280,11706.67
3513,26296,11710.00
3514,26304,11713.33
3515,26312,11716.67
3516,26312,11720.00
3517,26316,11723.33
3518,26328,11726.67
3519,26340,11730.00
3520,26356,11733.33
3521,26376,11736.67
3522,26392,11740.00
3523,26412,11743.33
3524,26428,11746.67
3525,26444,11750.00
3526,26472,11753.33
3527,26496,11756.67
3528,26484,11760.00
3529,26392,11763.33
3530,26240,11766.67
3531,26064,11770.00
3532,25916,11773.33
3533,25828,11776.67
3534,25800,11780.00
3535,25812,11783.33
3536,25844,11786.67
3537,25872,11790.00
3538,25900,11793.33
3539,25924,11796.67
3540,25956,11800.00
3541,25996,11803.33
3542,26028,11806.67
3543,26048,11810.00
3544,26056,11813.33
3545,26048,11816.67
3546,26036,11820.00
3547,26028,11823.33
3548,26028,11826.67
3549,26040,11830.00
3550,26060,11833.33
3551,26088,11836.67
3552,26120,11840.00
3553,26152,11843.33
3554,26188,11846.67
3555,26228,11850.00
3556,26256,11853.33
3557,26288,11856.67
3558,26320,11860.00
3559,26340,11863.33
3560,26364,11866.67
3561,26384,11870.00
3562,26404,11873.33
3563,26428,11876.67
3564,26452,11880.00
3565,26476,11883.33
3566,26488,11886.67
3567,26504,11890.00
3568,26512,11893.33
3569,26532,11896.67
3570,26560,11900.00
3571,26588,11903.33
3572,26596,11906.67
3573,26536,11910.00
3574,26396,11913.33
3575,26216,11916.67
3576,26044,11920.00
3577,25924,11923.33
3578,25864,11926.67
3579,25848,11930.00
3580,25860,11933.33
3581,25884,11936.67
3582,25904,11940.00
3583,25916,11943.33
3584,25928,11946.67
3585,25952,11950.00
3586,25980,11953.33
3587,26008,11956.67
3588,26028,11960.00
3589,26048,11963.33
3590,26056,11966.67
3591,26064,11970.00
3592,26064,11973.33
3593,26072,11976.67
3594,26096,11980.00
3595,26120,11983.33
3596,26152,11986.67
3597,26192,11990.00
3598,26228,11993.33
3599,26268,11996.67
3600,26304,12000.00
3601,26336,12003.33
3602,26364,12006.67
3603,26388,12010.00
3604,26416,12013.33
3605,26440,12016.67
3606,26460,12020.00
3607,26480,12023.33
3608,26500,12026.67
3609,26524,12030.00
3610,26540,12033.33
3611,26564,12036.67
3612,26584,12040.00
3613,26616,12043.33
3614,26640,12046.67
3615,26648,12050.00
3616,26604,12053.33
3617,26484,12056.67
3618,26300,12060.00
3619,26112,12063.33
3620,25960,12066.67
3621,25868,12070.00
3622,25840,12073.33
3623,25836,12076.67
3624,25852,12080.00
3625,25872,12083.33
3626,25892,12086.67
3627,25900,12090.00
3628,25920,12093.33
3629,25952,12096.67
3630,25988,12100.00
3631,26020,12103.33
3632,26044,12106.67
3633,26060,12110.00
3634,26068,12113.33
3635,26068,12116.67
3636,26076,12120.00
3637,26088,12123.33
3638,26108,12126.67
3639,26140,12130.00
3640,26168,12133.33
3641,26204,12136.67
3642,26236,12140.00
3643,26272,12143.33
3644,26304,12146.67
3645,26336,12150.00
3646,26372,12153.33
3647,26400,12156.67
3648,26424,12160.00
3649,26452,12163.33
3650,26476,12166.67
3651,26508,12170.00
3652,26528,12173.33
3653,26556,12176.67
3654,26580,12180.00
3655,26608,12183.33
3656,26636,12186.67
3657,26656,12190.00
3658,26680,12193.33
3659,26700,12196.67
3660,26728,12200.00
3661,26756,12203.33
3662,26768,12206.67
3663,26712,12210.00
3664,26576,12213.33
3665,26372,12216.67
3666,26172,12220.00
3667,26020,12223.33
3668,25932,12226.67
3669,25904,12230.00
3670,25912,12233.33
3671,25924,12236.67
3672,25944,12240.00
3673,25960,12243.33
3674,25976,12246.67
3675,25992,12250.00
3676,26024,12253.33
3677,26052,12256.67
3678,26088,12260.00
3679,26108,12263.33
3680,26124,12266.67
3681,26132,12270.00
3682,26140,12273.33
3683,26148,12276.67
3684,26160,12280.00
3685,26180,12283.33
3686,26212,12286.67
3687,26240,12290.00
3688,26276,12293.33
3689,26312,12296.67
3690,26348,12300.00
3691,26384,12303.33
3692,26412,12306.67
3693,26444,12310.00
3694,26468,12313.33
3695,26496,12316.67
3696,26520,12320.00
3697,26540,12323.33
3698,26560,12326.67
3699,26584,12330.00
3700,26604,12333.33
3701,26632,12336.67
3702,26656,12340.00
3703,26680,12343.33
3704,26700,12346.67
3705,26720,12350.00
3706,26740,12353.33
3707,26756,12356.67
3708,26776,12360.00
3709,26804,12363.33
3710,26812,12366.67
3711,26756,12370.00
3712,26612,12373.33
3713,26424,12376.67
3714,26220,12380.00
3715,26064,12383.33
3716,25972,12386.67
3717,25940,12390.00
3718,25936,12393.33
3719,25956,12396.67
3720,25976,12400.00
3721,25996,12403.33
3722,26016,12406.67
3723,26032,12410.00
3724,26068,12413.33
3725,26096,12416.67
3726,26116,12420.00
3727,26124,12423.33
3728,26136,12426.67
3729,26136,12430.00
3730,26136,12433.33
3731,26144,12436.67
3732,26156,12440.00
3733,26180,12443.33
3734,26208,12446.67
3735,26240,12450.00
3736,26284,12453.33
3737,26328,12456.67
3738,26368,12460.00
3739,26404,12463.33
3740,26440,12466.67
3741,26468,12470.00
3742,26500,12473.33
3743,26528,12476.67
3744,26556,12480.00
3745,26580,12483.33
3746,26600,12486.67
3747,26624,12490.00
3748,26644,12493.33
3749,26664,12496.67
3750,26688,12500.00
3751,26720,12503.33
3752,26724,12506.67
3753,26668,12510.00
3754,26536,12513.33
3755,26360,12516.67
3756,26184,12520.00
3757,26052,12523.33
3758,25984,12526.67
3759,25964,12530.00
3760,25976,12533.33
3761,26000,12536.67
3762,26028,12540.00
3763,26052,12543.33
3764,26072,12546.67
3765,26100,12550.00
3766,26132,12553.33
3767,26156,12556.67
3768,26172,12560.00
3769,26184,12563.33
3770,26184,12566.67
3771,26180,12570.00
3772,26180,12573.33
3773,26192,12576.67
3774,26212,12580.00
3775,26232,12583.33
3776,26264,12586.67
3777,26296,12590.00
3778,26336,12593.33
3779,26372,12596.67
3780,26412,12600.00
3781,26448,12603.33
3782,26480,12606.67
3783,26508,12610.00
3784,26536,12613.33
3785,26560,12616.67
3786,26584,12620.00
3787,26604,12623.33
3788,26632,12626.67
3789,26652,12630.00
3790,26676,12633.33
3791,26696,12636.67
3792,26728,12640.00
3793,26752,12643.33
3794,26736,12646.67
3795,26636,12650.00
3796,26468,12653.33
3797,26276,12656.67
3798,26112,12660.00
3799,26008,12663.33
3800,25960,12666.67
3801,25956,12670.00
3802,25972,12673.33
3803,25996,12676.67
3804,26016,12680.00
3805,26028,12683.33
3806,26048,12686.67
3807,26064,12690.00
3808,26096,12693.33
3809,26120,12696.67
3810,26136,12700.00
3811,26148,12703.33
3812,26144,12706.67
3813,26140,12710.00
3814,26140,12713.33
3815,26152,12716.67
3816,26172,12720.00
3817,26192,12723.33
3818,26224,12726.67
3819,26256,12730.00
3820,26292,12733.33
3821,26332,12736.67
3822,26364,12740.00
3823,26400,12743.33
3824,26428,12746.67
3825,26456,12750.00
3826,26484,12753.33
3827,26508,12756.67
3828,26532,12760.00
3829,26560,12763.33
3830,26584,12766.67
3831,26612,12770.00
3832,26640,12773.33
3833,26664,12776.67
3834,26692,12780.00
3835,26716,12783.33
3836,26740,12786.67
3837,26768,12790.00
3838,26792,12793.33
3839,26800,12796.67
3840,26732,12800.00
3841,26580,12803.33
3842,26376,12806.67
3843,26168,12810.00
3844,26012,12813.33
3845,25924,12816.67
3846,25892,12820.00
3847,25896,12823.33
3848,25912,12826.67
3849,25916,12830.00
3850,25904,12833.33
3851,25888,12836.67
3852,25884,12840.00
3853,25892,12843.33
3854,25912,12846.67
3855,25932,12850.00
3856,25940,12853.33
3857,25940,12856.67
3858,25936,12860.00
3859,25932,12863.33
3860,25936,12866.67
3861,25952,12870.00
3862,25968,12873.33
3863,26000,12876.67
3864,26036,12880.00
3865,26072,12883.33
3866,26112,12886.67
3867,26156,12890.00
3868,26192,12893.33
3869,26228,12896.67
3870,26256,12900.00
3871,26284,12903.33
3872,26308,12906.67
3873,26332,12910.00
3874,26360,12913.33
3875,26380,12916.67
3876,26412,12920.00
3877,26440,12923.33
3878,26468,12926.67
3879,26488,12930.00
3880,26516,12933.33
3881,26544,12936.67
3882,26572,12940.00
3883,26596,12943.33
3884,26628,12946.67
3885,26616,12950.00
3886,26520,12953.33
3887,26340,12956.67
3888,26132,12960.00
3889,25940,12963.33
3890,25812,12966.67
3891,25748,12970.00
3892,25732,12973.33
3893,25748,12976.67
3894,25776,12980.00
3895,25804,12983.33
3896,25832,12986.67
3897,25852,12990.00
3898,25888,12993.33
3899,25924,12996.67
3900,25952,13000.00
3901,25980,13003.33
3902,26000,13006.67
3903,26008,13010.00
3904,26012,13013.33
3905,26020,13016.67
3906,26028,13020.00
3907,26044,13023.33
3908,26068,13026.67
3909,26100,13030.00
3910,26136,13033.33
3911,26176,13036.67
3912,26212,13040.00
3913,26256,13043.33
3914,26288,13046.67
3915,26324,13050.00
3916,26356,13053.33
3917,26384,13056.67
3918,26400,13060.00
3919,26424,13063.33
3920,26444,13066.67
3921,26460,13070.00
3922,26468,13073.33
3923,26488,13076.67
3924,26500,13080.00
3925,26512,13083.33
3926,26528,13086.67
3927,26552,13090.00
3928,26536,13093.33
3929,26444,13096.67
3930,26276,13100.00
3931,26076,13103.33
3932,25900,13106.67
3933,25784,13110.00
3934,25732,13113.33
3935,25724,13116.67
3936,25748,13120.00
3937,25788,13123.33
3938,25832,13126.67
3939,25872,13130.00
3940,25916,13133.33
3941,25960,13136.67
3942,26000,13140.00
3943,26020,13143.33
3944,26028,13146.67
3945,26028,13150.00
3946,26020,13153.33
3947,26008,13156.67
3948,26008,13160.00
3949,26016,13163.33
3950,26028,13166.67
3951,26056,13170.00
3952,26088,13173.33
3953,26124,13176.67
3954,26160,13180.00
3955,26196,13183.33
3956,26228,13186.67
3957,26260,13190.00
3958,26292,13193.33
3959,26316,13196.67
3960,26336,13200.00
3961,26360,13203.33
3962,26376,13206.67
3963,26396,13210.00
3964,26416,13213.33
3965,26436,13216.67
3966,26460,13220.00
3967,26484,13223.33
3968,26476,13226.67
3969,26388,13230.00
3970,26228,13233.33
3971,26036,13236.67
3972,25860,13240.00
3973,25748,13243.33
3974,25696,13246.67
3975,25692,13250.00
3976,25720,13253.33
3977,25760,13256.67
3978,25796,13260.00
3979,25832,13263.33
3980,25864,13266.67
3981,25908,13270.00
3982,25940,13273.33
3983,25960,13276.67
3984,25976,13280.00
3985,25980,13283.33
3986,25976,13286.67
3987,25964,13290.00
3988,25964,13293.33
3989,25976,13296.67
3990,25992,13300.00
3991,26020,13303.33
3992,26052,13306.67
3993,26084,13310.00
3994,26128,13313.33
3995,26164,13316.67
3996,26196,13320.00
3997,26228,13323.33
3998,26260,13326.67
3999,26288,13330.00
4000,26316,13333.33
4001,26344,13336.67
4002,26364,13340.00
4003,26392,13343.33
4004,26416,13346.67
4005,26436,13350.00
4006,26464,13353.33
4007,26488,13356.67
4008,26512,13360.00
4009,26540,13363.33
4010,26572,13366.67
4011,26560,13370.00
4012,26468,13373.33
4013,26296,13376.67
4014,26084,13380.00
4015,25904,13383.33
4016,25776,13386.67
4017,25720,13390.00
4018,25720,13393.33
4019,25740,13396.67
4020,25776,13400.00
4021,25812,13403.33
4022,25840,13406.67
4023,25868,13410.00
4024,25904,13413.33
4025,25936,13416.67
4026,25960,13420.00
4027,25980,13423.33
4028,25988,13426.67
4029,25988,13430.00
4030,25992,13433.33
4031,25992,13436.67
4032,25996,13440.00
4033,26016,13443.33
4034,26036,13446.67
4035,26068,13450.00
4036,26108,13453.33
4037,26140,13456.67
4038,26180,13460.00
4039,26212,13463.33
4040,26244,13466.67
4041,26272,13470.00
4042,26300,13473.33
4043,26320,13476.67
4044,26340,13480.00
4045,26364,13483.33
4046,26384,13486.67
4047,26412,13490.00
4048,26432,13493.33
4049,26456,13496.67
4050,26476,13500.00
4051,26504,13503.33
4052,26528,13506.67
4053,26548,13510.00
4054,26572,13513.33
4055,26596,13516.67
4056,26628,13520.00
4057,26648,13523.33
4058,26660,13526.67
4059,26588,13530.00
4060,26428,13533.33
4061,26216,13536.67
4062,26012,13540.00
4063,25856,13543.33
4064,25772,13546.67
4065,25744,13550.00
4066,25756,13553.33
4067,25784,13556.67
4068,25816,13560.00
4069,25844,13563.33
4070,25860,13566.67
4071,25888,13570.00
4072,25920,13573.33
4073,25952,13576.67
4074,25976,13580.00
4075,25984,13583.33
4076,25992,13586.67
4077,25996,13590.00
4078,25996,13593.33
4079,26004,13596.67
4080,26020,13600.00
4081,26040,13603.33
4082,26072,13606.67
4083,26104,13610.00
4084,26136,13613.33
4085,26180,13616.67
4086,26212,13620.00
4087,26248,13623.33
4088,26280,13626.67
4089,26308,13630.00
4090,26336,13633.33
4091,26360,13636.67
4092,26384,13640.00
4093,26408,13643.33
4094,26428,13646.67
4095,26452,13650.00
4096,26476,13653.33
4097,26496,13656.67
4098,26520,13660.00
4099,26544,13663.33
4100,26568,13666.67
4101,26592,13670.00
4102,26616,13673.33
4103,26640,13676.67
4104,26664,13680.00
4105,26688,13683.33
4106,26716,13686.67
4107,26740,13690.00
4108,26728,13693.33
4109,26620,13696.67
4110,26436,13700.00
4111,26220,13703.33
4112,26032,13706.67
4113,25900,13710.00
4114,25836,13713.33
4115,25820,13716.67
4116,25836,13720.00
4117,25864,13723.33
4118,25892,13726.67
4119,25920,13730.00
4120,25944,13733.33
4121,25976,13736.67
4122,26004,13740.00
4123,26024,13743.33
4124,26036,13746.67
4125,26040,13750.00
4126,26032,13753.33
4127,26032,13756.67
4128,26028,13760.00
4129,26036,13763.33
4130,26052,13766.67
4131,26072,13770.00
4132,26108,13773.33
4133,26144,13776.67
4134,26180,13780.00
4135,26224,13783.33
4136,26260,13786.67
4137,26296,13790.00
4138,26324,13793.33
4139,26348,13796.67
4140,26372,13800.00
4141,26396,13803.33
4142,26420,13806.67
4143,26440,13810.00
4144,26456,13813.33
4145,26476,13816.67
4146,26496,13820.00
4147,26516,13823.33
4148,26540,13826.67
4149,26568,13830.00
4150,26596,13833.33
4151,26588,13836.67
4152,26504,13840.00
4153,26352,13843.33
4154,26172,13846.67
4155,26008,13850.00
4156,25888,13853.33
4157,25836,13856.67
4158,25828,13860.00
4159,25844,13863.33
4160,25884,13866.67
4161,25928,13870.00
4162,25968,13873.33
4163,26012,13876.67
4164,26052,13880.00
4165,26088,13883.33
4166,26104,13886.67
4167,26112,13890.00
4168,26104,13893.33
4169,26096,13896.67
4170,26088,13900.00
4171,26084,13903.33
4172,26100,13906.67
4173,26112,13910.00
4174,26136,13913.33
4175,26176,13916.67
4176,26216,13920.00
4177,26252,13923.33
4178,26288,13926.67
4179,26320,13930.00
4180,26348,13933.33
4181,26380,13936.67
4182,26404,13940.00
4183,26428,13943.33
4184,26448,13946.67
4185,26468,13950.00
4186,26484,13953.33
4187,26504,13956.67
4188,26524,13960.00
4189,26544,13963.33
4190,26572,13966.67
4191,26596,13970.00
4192,26572,13973.33
4193,26464,13976.67
4194,26296,13980.00
4195,26112,13983.33
4196,25964,13986.67
4197,25876,13990.00
4198,25844,13993.33
4199,25852,13996.67
4200,25880,14000.00
4201,25904,14003.33
4202,25932,14006.67
4203,25964,14010.00
4204,25996,14013.33
4205,26024,14016.67
4206,26052,14020.00
4207,26064,14023.33
4208,26068,14026.67
4209,26068,14030.00
4210,26060,14033.33
4211,26048,14036.67
4212,26056,14040.00
4213,26076,14043.33
4214,26100,14046.67
4215,26132,14050.00
4216,26164,14053.33
4217,26200,14056.67
4218,26232,14060.00
4219,26256,14063.33
4220,26280,14066.67
4221,26304,14070.00
4222,26328,14073.33
4223,26352,14076.67
4224,26364,14080.00
4225,26376,14083.33
4226,26392,14086.67
4227,26416,14090.00
4228,26436,14093.33
4229,26452,14096.67
4230,26464,14100.00
4231,26480,14103.33
4232,26496,14106.67
4233,26504,14110.00
4234,26476,14113.33
4235,26356,14116.67
4236,26172,14120.00
4237,25972,14123.33
4238,25800,14126.67
4239,25692,14130.00
4240,25648,14133.33
4241,25644,14136.67
4242,25672,14140.00
4243,25708,14143.33
4244,25732,14146.67
4245,25748,14150.00
4246,25772,14153.33
4247,25804,14156.67
4248,25832,14160.00
4249,25856,14163.33
4250,25868,14166.67
4251,25872,14170.00
4252,25864,14173.33
4253,25860,14176.67
4254,25860,14180.00
4255,25864,14183.33
4256,25876,14186.67
4257,25896,14190.00
4258,25924,14193.33
4259,25948,14196.67
4260,25984,14200.00
4261,26020,14203.33
4262,26056,14206.67
4263,26088,14210.00
4264,26116,14213.33
4265,26136,14216.67
4266,26164,14220.00
4267,26192,14223.33
4268,26220,14226.67
4269,26244,14230.00
4270,26268,14233.33
4271,26288,14236.67
4272,26316,14240.00
4273,26336,14243.33
4274,26368,14246.67
4275,26396,14250.00
4276,26424,14253.33
4277,26400,14256.67
4278,26284,14260.00
4279,26108,14263.33
4280,25928,14266.67
4281,25784,14270.00
4282,25708,14273.33
4283,25680,14276.67
4284,25692,14280.00
4285,25720,14283.33
4286,25744,14286.67
4287,25768,14290.00
4288,25788,14293.33
4289,25820,14296.67
4290,25856,14300.00
4291,25892,14303.33
4292,25912,14306.67
4293,25908,14310.00
4294,25896,14313.33
4295,25896,14316.67
4296,25900,14320.00
4297,25912,14323.33
4298,25932,14326.67
4299,25956,14330.00
4300,25980,14333.33
4301,26016,14336.67
4302,26052,14340.00
4303,26092,14343.33
4304,26128,14346.67
4305,26152,14350.00
4306,26176,14353.33
4307,26200,14356.67
4308,26220,14360.00
4309,26236,14363.33
4310,26252,14366.67
4311,26260,14370.00
4312,26276,14373.33
4313,26296,14376.67
4314,26320,14380.00
4315,26340,14383.33
4316,26360,14386.67
4317,26380,14390.00
4318,26360,14393.33
4319,26264,14396.67
4320,26100,14400.00
4321,25928,14403.33
4322,25784,14406.67
4323,25708,14410.00
4324,25684,14413.33
4325,25696,14416.67
4326,25720,14420.00
4327,25744,14423.33
4328,25764,14426.67
4329,25788,14430.00
4330,25824,14433.33
4331,25864,14436.67
4332,25900,14440.00
4333,25924,14443.33
4334,25936,14446.67
4335,25940,14450.00
4336,25944,14453.33
4337,25944,14456.67
4338,25956,14460.00
4339,25972,14463.33
4340,25996,14466.67
4341,26020,14470.00
4342,26052,14473.33
4343,26088,14476.67
4344,26120,14480.00
4345,26152,14483.33
4346,26188,14486.67
4347,26216,14490.00
4348,26240,14493.33
4349,26268,14496.67
4350,26288,14500.00
4351,26308,14503.33
4352,26328,14506.67
4353,26352,14510.00
4354,26372,14513.33
4355,26392,14516.67
4356,26416,14520.00
4357,26440,14523.33
4358,26464,14526.67
4359,26484,14530.00
4360,26512,14533.33
4361,26536,14536.67
4362,26556,14540.00
4363,26576,14543.33
4364,26604,14546.67
4365,26620,14550.00
4366,26584,14553.33
4367,26448,14556.67
4368,26248,14560.00
4369,26044,14563.33
4370,25888,14566.67
4371,25792,14570.00
4372,25760,14573.33
4373,25768,14576.67
4374,25788,14580.00
4375,25812,14583.33
4376,25832,14586.67
4377,25848,14590.00
4378,25868,14593.33
4379,25900,14596.67
4380,25928,14600.00
4381,25956,14603.33
4382,25968,14606.67
4383,25972,14610.00
4384,25976,14613.33
4385,25980,14616.67
4386,25992,14620.00
4387,26008,14623.33
4388,26032,14626.67
4389,26060,14630.00
4390,26084,14633.33
4391,26108,14636.67
4392,26140,14640.00
4393,26172,14643.33
4394,26196,14646.67
4395,26216,14650.00
4396,26236,14653.33
4397,26260,14656.67
4398,26284,14660.00
4399,26312,14663.33
4400,26340,14666.67
4401,26368,14670.00
4402,26404,14673.33
4403,26440,14676.67
4404,26476,14680.00
4405,26512,14683.33
4406,26540,14686.67
4407,26560,14690.00
4408,26584,14693.33
4409,26604,14696.67
4410,26608,14700.00
4411,26600,14703.33
4412,26604,14706.67
4413,26612,14710.00
4414,26608,14713.33
4415,26552,14716.67
4416,26424,14720.00
4417,26232,14723.33
4418,26028,14726.67
4419,25860,14730.00
4420,25760,14733.33
4421,25708,14736.67
4422,25696,14740.00
4423,25712,14743.33
4424,25744,14746.67
4425,25760,14750.00
4426,25780,14753.33
4427,25812,14756.67
4428,25848,14760.00
4429,25884,14763.33
4430,25920,14766.67
4431,25948,14770.00
4432,25964,14773.33
4433,25972,14776.67
4434,25984,14780.00
4435,25996,14783.33
4436,26020,14786.67
4437,26052,14790.00
4438,26092,14793.33
4439,26120,14796.67
4440,26148,14800.00
4441,26188,14803.33
4442,26228,14806.67
4443,26264,14810.00
4444,26300,14813.33
4445,26324,14816.67
4446,26348,14820.00
4447,26368,14823.33
4448,26380,14826.67
4449,26396,14830.00
4450,26416,14833.33
4451,26436,14836.67
4452,26460,14840.00
4453,26484,14843.33
4454,26508,14846.67
4455,26540,14850.00
4456,26576,14853.33
4457,26616,14856.67
4458,26648,14860.00
4459,26660,14863.33
4460,26596,14866.67
4461,26452,14870.00
4462,26272,14873.33
4463,26100,14876.67
4464,25972,14880.00
4465,25892,14883.33
4466,25868,14886.67
4467,25872,14890.00
4468,25892,14893.33
4469,25912,14896.67
4470,25924,14900.00
4471,25936,14903.33
4472,25956,14906.67
4473,25988,14910.00
4474,26016,14913.33
4475,26040,14916.67
4476,26052,14920.00
4477,26048,14923.33
4478,26044,14926.67
4479,26044,14930.00
4480,26044,14933.33
4481,26060,14936.67
4482,26084,14940.00
4483,26112,14943.33
4484,26152,14946.67
4485,26188,14950.00
4486,26228,14953.33
4487,26268,14956.67
4488,26304,14960.00
4489,26340,14963.33
4490,26376,14966.67
4491,26404,14970.00
4492,26428,14973.33
4493,26448,14976.67
4494,26472,14980.00
4495,26488,14983.33
4496,26508,14986.67
4497,26528,14990.00
4498,26552,14993.33
4499,26576,14996.67
4500,26576,15000.00
4501,26508,15003.33
4502,26368,15006.67
4503,26184,15010.00
4504,26020,15013.33
4505,25908,15016.67
4506,25856,15020.00
4507,25844,15023.33
4508,25864,15026.67
4509,25896,15030.00
4510,25932,15033.33
4511,25972,15036.67
4512,26000,15040.00
4513,26036,15043.33
4514,26072,15046.67
4515,26096,15050.00
4516,26116,15053.33
4517,26124,15056.67
4518,26128,15060.00
4519,26132,15063.33
4520,26144,15066.67
4521,26160,15070.00
4522,26184,15073.33
4523,26212,15076.67
4524,26244,15080.00
4525,26272,15083.33
4526,26304,15086.67
4527,26336,15090.00
4528,26364,15093.33
4529,26396,15096.67
4530,26428,15100.00
4531,26452,15103.33
4532,26472,15106.67
4533,26496,15110.00
4534,26520,15113.33
4535,26544,15116.67
4536,26560,15120.00
4537,26584,15123.33
4538,26604,15126.67
4539,26624,15130.00
4540,26652,15133.33
4541,26672,15136.67
4542,26628,15140.00
4543,26504,15143.33
4544,26328,15146.67
4545,26144,15150.00
4546,26000,15153.33
4547,25920,15156.67
4548,25892,15160.00
4549,25896,15163.33
4550,25924,15166.67
4551,25948,15170.00
4552,25972,15173.33
4553,25996,15176.67
4554,26028,15180.00
4555,26064,15183.33
4556,26104,15186.67
4557,26128,15190.00
4558,26148,15193.33
4559,26160,15196.67
4560,26172,15200.00
4561,26184,15203.33
4562,26192,15206.67
4563,26212,15210.00
4564,26236,15213.33
4565,26276,15216.67
4566,26312,15220.00
4567,26352,15223.33
4568,26388,15226.67
4569,26424,15230.00
4570,26460,15233.33
4571,26492,15236.67
4572,26528,15240.00
4573,26552,15243.33
4574,26584,15246.67
4575,26608,15250.00
4576,26632,15253.33
4577,26656,15256.67
4578,26680,15260.00
4579,26704,15263.33
4580,26728,15266.67
4581,26756,15270.00
4582,26776,15273.33
4583,26736,15276.67
4584,26632,15280.00
4585,26492,15283.33
4586,26352,15286.67
4587,26240,15290.00
4588,26176,15293.33
4589,26152,15296.67
4590,26152,15300.00
4591,26172,15303.33
4592,26196,15306.67
4593,26216,15310.00
4594,26232,15313.33
4595,26260,15316.67
4596,26292,15320.00
4597,26320,15323.33
4598,26340,15326.67
4599,26356,15330.00
4600,26368,15333.33
4601,26372,15336.67
4602,26384,15340.00
4603,26396,15343.33
4604,26408,15346.67
4605,26432,15350.00
4606,26456,15353.33
4607,26488,15356.67
4608,26516,15360.00
4609,26552,15363.33
4610,26584,15366.67
4611,26616,15370.00
4612,26652,15373.33
4613,26676,15376.67
4614,26708,15380.00
4615,26732,15383.33
4616,26760,15386.67
4617,26780,15390.00
4618,26800,15393.33
4619,26820,15396.67
4620,26836,15400.00
4621,26856,15403.33
4622,26884,15406.67
4623,26900,15410.00
4624,26908,15413.33
4625,26856,15416.67
4626,26752,15420.00
4627,26624,15423.33
4628,26500,15426.67
4629,26408,15430.00
4630,26344,15433.33
4631,26316,15436.67
4632,26312,15440.00
4633,26316,15443.33
4634,26324,15446.67
4635,26336,15450.00
4636,26348,15453.33
4637,26364,15456.67
4638,26384,15460.00
4639,26400,15463.33
4640,26416,15466.67
4641,26420,15470.00
4642,26424,15473.33
4643,26428,15476.67
4644,26432,15480.00
4645,26436,15483.33
4646,26452,15486.67
4647,26472,15490.00
4648,26496,15493.33
4649,26524,15496.67
4650,26552,15500.00
4651,26576,15503.33
4652,26604,15506.67
4653,26636,15510.00
4654,26664,15513.33
4655,26688,15516.67
4656,26712,15520.00
4657,26732,15523.33
4658,26752,15526.67
4659,26772,15530.00
4660,26792,15533.33
4661,26816,15536.67
4662,26840,15540.00
4663,26852,15543.33
4664,26824,15546.67
4665,26748,15550.00
4666,26636,15553.33
4667,26532,15556.67
4668,26444,15560.00
4669,26392,15563.33
4670,26368,15566.67
4671,26368,15570.00
4672,26384,15573.33
4673,26400,15576.67
4674,26408,15580.00
4675,26428,15583.33
4676,26452,15586.67
4677,26480,15590.00
4678,26496,15593.33
4679,26504,15596.67
4680,26512,15600.00
4681,26512,15603.33
4682,26508,15606.67
4683,26508,15610.00
4684,26516,15613.33
4685,26528,15616.67
4686,26540,15620.00
4687,26560,15623.33
4688,26584,15626.67
4689,26608,15630.00
4690,26632,15633.33
4691,26664,15636.67
4692,26684,15640.00
4693,26708,15643.33
4694,26728,15646.67
4695,26752,15650.00
4696,26772,15653.33
4697,26792,15656.67
4698,26808,15660.00
4699,26824,15663.33
4700,26848,15666.67
4701,26860,15670.00
4702,26824,15673.33
4703,26736,15676.67
4704,26620,15680.00
4705,26508,15683.33
4706,26424,15686.67
4707,26376,15690.00
4708,26352,15693.33
4709,26352,15696.67
4710,26364,15700.00
4711,26372,15703.33
4712,26388,15706.67
4713,26408,15710.00
4714,26432,15713.33
4715,26452,15716.67
4716,26468,15720.00
4717,26484,15723.33
4718,26488,15726.67
4719,26492,15730.00
4720,26492,15733.33
4721,26492,15736.67
4722,26500,15740.00
4723,26512,15743.33
4724,26524,15746.67
4725,26544,15750.00
4726,26564,15753.33
4727,26588,15756.67
4728,26612,15760.00
4729,26636,15763.33
4730,26660,15766.67
4731,26676,15770.00
4732,26700,15773.33
4733,26724,15776.67
4734,26744,15780.00
4735,26760,15783.33
4736,26780,15786.67
4737,26796,15790.00
4738,26820,15793.33
4739,26840,15796.67
4740,26828,15800.00
4741,26756,15803.33
4742,26644,15806.67
4743,26520,15810.00
4744,26408,15813.33
4745,26332,15816.67
4746,26292,15820.00
4747,26276,15823.33
4748,26280,15826.67
4749,26284,15830.00
4750,26292,15833.33
4751,26296,15836.67
4752,26312,15840.00
4753,26332,15843.33
4754,26356,15846.67
4755,26372,15850.00
4756,26388,15853.33
4757,26396,15856.67
4758,26400,15860.00
4759,26408,15863.33
4760,26416,15866.67
4761,26424,15870.00
4762,26444,15873.33
4763,26460,15876.67
4764,26484,15880.00
4765,26508,15883.33
4766,26536,15886.67
4767,26564,15890.00
4768,26596,15893.33
4769,26620,15896.67
4770,26640,15900.00
4771,26664,15903.33
4772,26684,15906.67
4773,26708,15910.00
4774,26728,15913.33
4775,26744,15916.67
4776,26768,15920.00
4777,26784,15923.33
4778,26800,15926.67
4779,26820,15930.00
4780,26844,15933.33
4781,26864,15936.67
4782,26868,15940.00
4783,26816,15943.33
4784,26696,15946.67
4785,26552,15950.00
4786,26420,15953.33
4787,26312,15956.67
4788,26248,15960.00
4789,26224,15963.33
4790,26220,15966.67
4791,26228,15970.00
4792,26232,15973.33
4793,26240,15976.67
4794,26248,15980.00
4795,26268,15983.33
4796,26292,15986.67
4797,26316,15990.00
4798,26332,15993.33
4799,26348,15996.67
4800,26352,16000.00
4801,26360,16003.33
4802,26360,16006.67
4803,26372,16010.00
4804,26388,16013.33
4805,26408,16016.67
4806,26436,16020.00
4807,26460,16023.33
4808,26492,16026.67
4809,26524,16030.00
4810,26548,16033.33
4811,26576,16036.67
4812,26608,16040.00
4813,26632,16043.33
4814,26656,16046.67
4815,26684,16050.00
4816,26700,16053.33
4817,26724,16056.67
4818,26744,16060.00
4819,26768,16063.33
4820,26784,16066.67
4821,26808,16070.00
4822,26832,16073.33
4823,26852,16076.67
4824,26876,16080.00
4825,26896,16083.33
4826,26920,16086.67
4827,26944,16090.00
4828,26964,16093.33
4829,26988,16096.67
4830,27012,16100.00
4831,27008,16103.33
4832,26940,16106.67
4833,26800,16110.00
4834,26624,16113.33
4835,26460,16116.67
4836,26336,16120.00
4837,26256,16123.33
4838,26220,16126.67
4839,26216,16130.00
4840,26228,16133.33
4841,26240,16136.67
4842,26248,16140.00
4843,26264,16143.33
4844,26284,16146.67
4845,26308,16150.00
4846,26336,16153.33
4847,26348,16156.67
4848,26352,16160.00
4849,26356,16163.33
4850,26360,16166.67
4851,26364,16170.00
4852,26372,16173.33
4853,26388,16176.67
4854,26408,16180.00
4855,26436,16183.33
4856,26468,16186.67
4857,26500,16190.00
4858,26528,16193.33
4859,26560,16196.67
4860,26588,16200.00
4861,26616,16203.33
4862,26648,16206.67
4863,26668,16210.00
4864,26692,16213.33
4865,26712,16216.67
4866,26732,16220.00
4867,26756,16223.33
4868,26780,16226.67
4869,26804,16230.00
4870,26820,16233.33
4871,26844,16236.67
4872,26860,16240.00
4873,26884,16243.33
4874,26908,16246.67
4875,26932,16250.00
4876,26948,16253.33
4877,26908,16256.67
4878,26804,16260.00
4879,26648,16263.33
4880,26484,16266.67
4881,26348,16270.00
4882,26264,16273.33
4883,26228,16276.67
4884,26232,16280.00
4885,26248,16283.33
4886,26268,16286.67
4887,26292,16290.00
4888,26316,16293.33
4889,26348,16296.67
4890,26380,16300.00
4891,26404,16303.33
4892,26416,16306.67
4893,26424,16310.00
4894,26424,16313.33
4895,26416,16316.67
4896,26416,16320.00
4897,26420,16323.33
4898,26432,16326.67
4899,26452,16330.00
4900,26476,16333.33
4901,26512,16336.67
4902,26540,16340.00
4903,26572,16343.33
4904,26604,16346.67
4905,26636,16350.00
4906,26664,16353.33
4907,26688,16356.67
4908,26712,16360.00
4909,26736,16363.33
4910,26760,16366.67
4911,26780,16370.00
4912,26804,16373.33
4913,26824,16376.67
4914,26844,16380.00
4915,26868,16383.33
4916,26884,16386.67
4917,26908,16390.00
4918,26928,16393.33
4919,26956,16396.67
4920,26984,16400.00
4921,26988,16403.33
4922,26940,16406.67
4923,26820,16410.00
4924,26648,16413.33
4925,26476,16416.67
4926,26348,16420.00
4927,26264,16423.33
4928,26240,16426.67
4929,26248,16430.00
4930,26272,16433.33
4931,26296,16436.67
4932,26316,16440.00
4933,26332,16443.33
4934,26352,16446.67
4935,26384,16450.00
4936,26400,16453.33
4937,26408,16456.67
4938,26404,16460.00
4939,26400,16463.33
4940,26388,16466.67
4941,26384,16470.00
4942,26384,16473.33
4943,26392,16476.67
4944,26404,16480.00
4945,26428,16483.33
4946,26456,16486.67
4947,26484,16490.00
4948,26512,16493.33
4949,26536,16496.67
4950,26564,16500.00
4951,26588,16503.33
4952,26612,16506.67
4953,26632,16510.00
4954,26652,16513.33
4955,26672,16516.67
4956,26692,16520.00
4957,26716,16523.33
4958,26736,16526.67
4959,26756,16530.00
4960,26776,16533.33
4961,26800,16536.67
4962,26820,16540.00
4963,26840,16543.33
4964,26860,16546.67
4965,26880,16550.00
4966,26904,16553.33
4967,26928,16556.67
4968,26932,16560.00
4969,26872,16563.33
4970,26732,16566.67
4971,26540,16570.00
4972,26344,16573.33
4973,26200,16576.67
4974,26116,16580.00
4975,26088,16583.33
4976,26088,16586.67
4977,26108,16590.00
4978,26124,16593.33
4979,26132,16596.67
4980,26144,16600.00
4981,26164,16603.33
4982,26188,16606.67
4983,26212,16610.00
4984,26232,16613.33
4985,26244,16616.67
4986,26244,16620.00
4987,26248,16623.33
4988,26244,16626.67
4989,26248,16630.00
4990,26260,16633.33
4991,26276,16636.67
4992,26300,16640.00
4993,26324,16643.33
4994,26356,16646.67
4995,26392,16650.00
4996,26416,16653.33
4997,26452,16656.67
4998,26480,16660.00
4999,26504,16663.33
5000,26532,16666.67
5001,26556,16670.00
5002,26572,16673.33
5003,26592,16676.67
5004,26608,16680.00
5005,26624,16683.33
5006,26640,16686.67
5007,26660,16690.00
5008,26684,16693.33
5009,26700,16696.67
5010,26724,16700.00
5011,26740,16703.33
5012,26764,16706.67
5013,26788,16710.00
5014,26812,16713.33
5015,26824,16716.67
5016,26772,16720.00
5017,26644,16723.33
5018,26460,16726.67
5019,26264,16730.00
5020,26112,16733.33
5021,26024,16736.67
5022,25988,16740.00
5023,25988,16743.33
5024,26008,16746.67
5025,26024,16750.00
5026,26044,16753.33
5027,26052,16756.67
5028,26076,16760.00
5029,26100,16763.33
5030,26132,16766.67
5031,26148,16770.00
5032,26164,16773.33
5033,26168,16776.67
5034,26168,16780.00
5035,26168,16783.33
5036,26172,16786.67
5037,26180,16790.00
5038,26204,16793.33
5039,26228,16796.67
5040,26256,16800.00
5041,26284,16803.33
5042,26316,16806.67
5043,26348,16810.00
5044,26384,16813.33
5045,26408,16816.67
5046,26432,16820.00
5047,26456,16823.33
5048,26476,16826.67
5049,26496,16830.00
5050,26516,16833.33
5051,26536,16836.67
5052,26560,16840.00
5053,26580,16843.33
5054,26596,16846.67
5055,26612,16850.00
5056,26632,16853.33
5057,26660,16856.67
5058,26680,16860.00
5059,26656,16863.33
5060,26560,16866.67
5061,26404,16870.00
5062,26224,16873.33
5063,26076,16876.67
5064,25992,16880.00
5065,25952,16883.33
5066,25956,16886.67
5067,25980,16890.00
5068,26004,16893.33
5069,26032,16896.67
5070,26056,16900.00
5071,26088,16903.33
5072,26128,16906.67
5073,26152,16910.00
5074,26172,16913.33
5075,26176,16916.67
5076,26176,16920.00
5077,26172,16923.33
5078,26168,16926.67
5079,26172,16930.00
5080,26184,16933.33
5081,26204,16936.67
5082,26228,16940.00
5083,26256,16943.33
5084,26296,16946.67
5085,26328,16950.00
5086,26360,16953.33
5087,26396,16956.67
5088,26420,16960.00
5089,26444,16963.33
5090,26468,16966.67
5091,26484,16970.00
5092,26504,16973.33
5093,26516,16976.67
5094,26528,16980.00
5095,26540,16983.33
5096,26556,16986.67
5097,26576,16990.00
5098,26596,16993.33
5099,26604,16996.67
5100,26548,17000.00
5101,26416,17003.33
5102,26244,17006.67
5103,26064,17010.00
5104,25940,17013.33
5105,25876,17016.67
5106,25856,17020.00
5107,25864,17023.33
5108,25888,17026.67
5109,25912,17030.00
5110,25928,17033.33
5111,25948,17036.67
5112,25980,17040.00
5113,26012,17043.33
5114,26040,17046.67
5115,26060,17050.00
5116,26072,17053.33
5117,26076,17056.67
5118,26076,17060.00
5119,26076,17063.33
5120,26088,17066.67
5121,26108,17070.00
5122,26132,17073.33
5123,26164,17076.67
5124,26200,17080.00
5125,26232,17083.33
5126,26264,17086.67
5127,26300,17090.00
5128,26324,17093.33
5129,26356,17096.67
5130,26380,17100.00
5131,26400,17103.33
5132,26420,17106.67
5133,26444,17110.00
5134,26460,17113.33
5135,26484,17116.67
5136,26504,17120.00
5137,26528,17123.33
5138,26548,17126.67
5139,26572,17130.00
5140,26596,17133.33
5141,26608,17136.67
5142,26564,17140.00
5143,26440,17143.33
5144,26256,17146.67
5145,26064,17150.00
5146,25916,17153.33
5147,25832,17156.67
5148,25800,17160.00
5149,25804,17163.33
5150,25820,17166.67
5151,25832,17170.00
5152,25844,17173.33
5153,25860,17176.67
5154,25884,17180.00
5155,25920,17183.33
5156,25948,17186.67
5157,25972,17190.00
5158,25988,17193.33
5159,26000,17196.67
5160,26004,17200.00
5161,26012,17203.33
5162,26020,17206.67
5163,26036,17210.00
5164,26056,17213.33
5165,26080,17216.67
5166,26108,17220.00
5167,26140,17223.33
5168,26176,17226.67
5169,26204,17230.00
5170,26232,17233.33
5171,26260,17236.67
5172,26288,17240.00
5173,26304,17243.33
5174,26328,17246.67
5175,26356,17250.00
5176,26376,17253.33
5177,26396,17256.67
5178,26416,17260.00
5179,26444,17263.33
5180,26464,17266.67
5181,26488,17270.00
5182,26512,17273.33
5183,26536,17276.67
5184,26560,17280.00
5185,26584,17283.33
5186,26608,17286.67
5187,26632,17290.00
5188,26656,17293.33
5189,26680,17296.67
5190,26672,17300.00
5191,26576,17303.33
5192,26400,17306.67
5193,26184,17310.00
5194,25996,17313.33
5195,25872,17316.67
5196,25808,17320.00
5197,25788,17323.33
5198,25796,17326.67
5199,25808,17330.00
5200,25820,17333.33
5201,25828,17336.67
5202,25836,17340.00
5203,25860,17343.33
5204,25888,17346.67
5205,25916,17350.00
5206,25932,17353.33
5207,25940,17356.67
5208,25944,17360.00
5209,25948,17363.33
5210,25956,17366.67
5211,25964,17370.00
5212,25984,17373.33
5213,26004,17376.67
5214,26032,17380.00
5215,26064,17383.33
5216,26096,17386.67
5217,26132,17390.00
5218,26160,17393.33
5219,26192,17396.67
5220,26220,17400.00
5221,26248,17403.33
5222,26268,17406.67
5223,26292,17410.00
5224,26312,17413.33
5225,26332,17416.67
5226,26352,17420.00
5227,26376,17423.33
5228,26404,17426.67
5229,26424,17430.00
5230,26448,17433.33
5231,26472,17436.67
5232,26492,17440.00
5233,26520,17443.33
5234,26544,17446.67
5235,26572,17450.00
5236,26592,17453.33
5237,26616,17456.67
5238,26640,17460.00
5239,26664,17463.33
5240,26664,17466.67
5241,26584,17470.00
5242,26420,17473.33
5243,26220,17476.67
5244,26028,17480.00
5245,25900,17483.33
5246,25828,17486.67
5247,25808,17490.00
5248,25820,17493.33
5249,25840,17496.67
5250,25860,17500.00
5251,25876,17503.33
5252,25896,17506.67
5253,25928,17510.00
5254,25956,17513.33
5255,25976,17516.67
5256,25988,17520.00
5257,25992,17523.33
5258,25992,17526.67
5259,25992,17530.00
5260,25992,17533.33
5261,26004,17536.67
5262,26020,17540.00
5263,26044,17543.33
5264,26072,17546.67
5265,26104,17550.00
5266,26136,17553.33
5267,26172,17556.67
5268,26204,17560.00
5269,26236,17563.33
5270,26268,17566.67
5271,26292,17570.00
5272,26316,17573.33
5273,26344,17576.67
5274,26368,17580.00
5275,26388,17583.33
5276,26412,17586.67
5277,26436,17590.00
5278,26460,17593.33
5279,26484,17596.67
5280,26508,17600.00
5281,26528,17603.33
5282,26552,17606.67
5283,26576,17610.00
5284,26600,17613.33
5285,26608,17616.67
5286,26552,17620.00
5287,26416,17623.33
5288,26232,17626.67
5289,26052,17630.00
5290,25916,17633.33
5291,25844,17636.67
5292,25816,17640.00
5293,25828,17643.33
5294,25848,17646.67
5295,25872,17650.00
5296,25888,17653.33
5297,25904,17656.67
5298,25936,17660.00
5299,25972,17663.33
5300,25992,17666.67
5301,26012,17670.00
5302,26020,17673.33
5303,26020,17676.67
5304,26020,17680.00
5305,26028,17683.33
5306,26036,17686.67
5307,26056,17690.00
5308,26080,17693.33
5309,26112,17696.67
5310,26144,17700.00
5311,26176,17703.33
5312,26204,17706.67
5313,26236,17710.00
5314,26268,17713.33
5315,26300,17716.67
5316,26328,17720.00
5317,26348,17723.33
5318,26372,17726.67
5319,26396,17730.00
5320,26420,17733.33
5321,26440,17736.67
5322,26464,17740.00
5323,26488,17743.33
5324,26512,17746.67
5325,26536,17750.00
5326,26556,17753.33
5327,26580,17756.67
5328,26604,17760.00
5329,26636,17763.33
5330,26644,17766.67
5331,26584,17770.00
5332,26436,17773.33
5333,26240,17776.67
5334,26044,17780.00
5335,25904,17783.33
5336,25828,17786.67
5337,25808,17790.00
5338,25812,17793.33
5339,25828,17796.67
5340,25844,17800.00
5341,25856,17803.33
5342,25868,17806.67
5343,25896,17810.00
5344,25924,17813.33
5345,25952,17816.67
5346,25972,17820.00
5347,25984,17823.33
5348,25988,17826.67
5349,25988,17830.00
5350,25992,17833.33
5351,26004,17836.67
5352,26016,17840.00
5353,26036,17843.33
5354,26064,17846.67
5355,26096,17850.00
5356,26132,17853.33
5357,26164,17856.67
5358,26200,17860.00
5359,26232,17863.33
5360,26264,17866.67
5361,26288,17870.00
5362,26312,17873.33
5363,26336,17876.67
5364,26352,17880.00
5365,26376,17883.33
5366,26396,17886.67
5367,26420,17890.00
5368,26448,17893.33
5369,26468,17896.67
5370,26492,17900.00
5371,26516,17903.33
5372,26540,17906.67
5373,26568,17910.00
5374,26588,17913.33
5375,26564,17916.67
5376,26452,17920.00
5377,26272,17923.33
5378,26076,17926.67
5379,25908,17930.00
5380,25808,17933.33
5381,25768,17936.67
5382,25764,17940.00
5383,25780,17943.33
5384,25800,17946.67
5385,25808,17950.00
5386,25824,17953.33
5387,25840,17956.67
5388,25868,17960.00
5389,25896,17963.33
5390,25920,17966.67
5391,25940,17970.00
5392,25948,17973.33
5393,25956,17976.67
5394,25960,17980.00
5395,25964,17983.33
5396,25976,17986.67
5397,25992,17990.00
5398,26016,17993.33
5399,26052,17996.67
5400,26080,18000.00
5401,26116,18003.33
5402,26144,18006.67
5403,26172,18010.00
5404,26208,18013.33
5405,26228,18016.67
5406,26256,18020.00
5407,26280,18023.33
5408,26304,18026.67
5409,26320,18030.00
5410,26340,18033.33
5411,26360,18036.67
5412,26384,18040.00
5413,26404,18043.33
5414,26420,18046.67
5415,26444,18050.00
5416,26468,18053.33
5417,26492,18056.67
5418,26504,18060.00
5419,26448,18063.33
5420,26308,18066.67
5421,26124,18070.00
5422,25948,18073.33
5423,25820,18076.67
5424,25756,18080.00
5425,25744,18083.33
5426,25756,18086.67
5427,25784,18090.00
5428,25808,18093.33
5429,25828,18096.67
5430,25852,18100.00
5431,25888,18103.33
5432,25920,18106.67
5433,25948,18110.00
5434,25964,18113.33
5435,25972,18116.67
5436,25968,18120.00
5437,25972,18123.33
5438,25976,18126.67
5439,25984,18130.00
5440,26000,18133.33
5441,26028,18136.67
5442,26056,18140.00
5443,26092,18143.33
5444,26120,18146.67
5445,26156,18150.00
5446,26192,18153.33
5447,26224,18156.67
5448,26252,18160.00
5449,26272,18163.33
5450,26296,18166.67
5451,26312,18170.00
5452,26328,18173.33
5453,26352,18176.67
5454,26368,18180.00
5455,26384,18183.33
5456,26400,18186.67
5457,26424,18190.00
5458,26444,18193.33
5459,26464,18196.67
5460,26476,18200.00
5461,26436,18203.33
5462,26308,18206.67
5463,26124,18210.00
5464,25936,18213.33
5465,25792,18216.67
5466,25708,18220.00
5467,25684,18223.33
5468,25692,18226.67
5469,25716,18230.00
5470,25744,18233.33
5471,25764,18236.67
5472,25784,18240.00
5473,25808,18243.33
5474,25844,18246.67
5475,25872,18250.00
5476,25896,18253.33
5477,25908,18256.67
5478,25912,18260.00
5479,25916,18263.33
5480,25920,18266.67
5481,25932,18270.00
5482,25952,18273.33
5483,25984,18276.67
5484,26020,18280.00
5485,26064,18283.33
5486,26100,18286.67
5487,26132,18290.00
5488,26164,18293.33
5489,26192,18296.67
5490,26216,18300.00
5491,26236,18303.33
5492,26256,18306.67
5493,26272,18310.00
5494,26292,18313.33
5495,26304,18316.67
5496,26324,18320.00
5497,26344,18323.33
5498,26368,18326.67
5499,26384,18330.00
5500,26412,18333.33
5501,26432,18336.67
5502,26452,18340.00
5503,26480,18343.33
5504,26500,18346.67
5505,26524,18350.00
5506,26548,18353.33
5507,26544,18356.67
5508,26472,18360.00
5509,26304,18363.33
5510,26088,18366.67
5511,25880,18370.00
5512,25740,18373.33
5513,25664,18376.67
5514,25644,18380.00
5515,25648,18383.33
5516,25660,18386.67
5517,25676,18390.00
5518,25684,18393.33
5519,25692,18396.67
5520,25712,18400.00
5521,25748,18403.33
5522,25784,18406.67
5523,25808,18410.00
5524,25820,18413.33
5525,25832,18416.67
5526,25840,18420.00
5527,25852,18423.33
5528,25860,18426.67
5529,25880,18430.00
5530,25904,18433.33
5531,25936,18436.67
5532,25968,18440.00
5533,26004,18443.33
5534,26040,18446.67
5535,26076,18450.00
5536,26108,18453.33
5537,26144,18456.67
5538,26168,18460.00
5539,26200,18463.33
5540,26224,18466.67
5541,26252,18470.00
5542,26276,18473.33
5543,26296,18476.67
5544,26320,18480.00
5545,26344,18483.33
5546,26368,18486.67
5547,26388,18490.00
5548,26416,18493.33
5549,26444,18496.67
5550,26464,18500.00
5551,26492,18503.33
5552,26520,18506.67
5553,26544,18510.00
5554,26568,18513.33
5555,26544,18516.67
5556,26428,18520.00
5557,26228,18523.33
5558,26008,18526.67
5559,25828,18530.00
5560,25716,18533.33
5561,25668,18536.67
5562,25660,18540.00
5563,25676,18543.33
5564,25692,18546.67
5565,25708,18550.00
5566,25720,18553.33
5567,25740,18556.67
5568,25764,18560.00
5569,25800,18563.33
5570,25828,18566.67
5571,25844,18570.00
5572,25852,18573.33
5573,25860,18576.67
5574,25864,18580.00
5575,25868,18583.33
5576,25880,18586.67
5577,25900,18590.00
5578,25924,18593.33
5579,25960,18596.67
5580,25992,18600.00
5581,26032,18603.33
5582,26064,18606.67
5583,26096,18610.00
5584,26128,18613.33
5585,26156,18616.67
5586,26180,18620.00
5587,26200,18623.33
5588,26228,18626.67
5589,26248,18630.00
5590,26268,18633.33
5591,26292,18636.67
5592,26312,18640.00
5593,26336,18643.33
5594,26356,18646.67
5595,26376,18650.00
5596,26400,18653.33
5597,26424,18656.67
5598,26452,18660.00
5599,26468,18663.33
5600,26428,18666.67
5601,26304,18670.00
5602,26116,18673.33
5603,25924,18676.67
5604,25768,18680.00
5605,25692,18683.33
5606,25660,18686.67
5607,25664,18690.00
5608,25692,18693.33
5609,25720,18696.67
5610,25748,18700.00
5611,25772,18703.33
5612,25796,18706.67
5613,25828,18710.00
5614,25856,18713.33
5615,25872,18716.67
5616,25880,18720.00
5617,25876,18723.33
5618,25872,18726.67
5619,25876,18730.00
5620,25880,18733.33
5621,25888,18736.67
5622,25912,18740.00
5623,25928,18743.33
5624,25960,18746.67
5625,25996,18750.00
5626,26024,18753.33
5627,26060,18756.67
5628,26092,18760.00
5629,26128,18763.33
5630,26156,18766.67
5631,26184,18770.00
5632,26212,18773.33
5633,26236,18776.67
5634,26256,18780.00
5635,26280,18783.33
5636,26296,18786.67
5637,26324,18790.00
5638,26352,18793.33
5639,26352,18796.67
5640,26292,18800.00
5641,26152,18803.33
5642,25972,18806.67
5643,25800,18810.00
5644,25680,18813.33
5645,25624,18816.67
5646,25616,18820.00
5647,25636,18823.33
5648,25664,18826.67
5649,25696,18830.00
5650,25728,18833.33
5651,25760,18836.67
5652,25796,18840.00
5653,25836,18843.33
5654,25872,18846.67
5655,25892,18850.00
5656,25892,18853.33
5657,25888,18856.67
5658,25872,18860.00
5659,25864,18863.33
5660,25868,18866.67
5661,25876,18870.00
5662,25892,18873.33
5663,25912,18876.67
5664,25936,18880.00
5665,25968,18883.33
5666,26000,18886.67
5667,26016,18890.00
5668,26040,18893.33
5669,26060,18896.67
5670,26084,18900.00
5671,26100,18903.33
5672,26116,18906.67
5673,26124,18910.00
5674,26136,18913.33
5675,26144,18916.67
5676,26168,18920.00
5677,26188,18923.33
5678,26136,18926.67
5679,26012,18930.00
5680,25824,18933.33
5681,25628,18936.67
5682,25472,18940.00
5683,25380,18943.33
5684,25356,18946.67
5685,25364,18950.00
5686,25388,18953.33
5687,25404,18956.67
5688,25420,18960.00
5689,25436,18963.33
5690,25456,18966.67
5691,25492,18970.00
5692,25528,18973.33
5693,25552,18976.67
5694,25564,18980.00
5695,25568,18983.33
5696,25560,18986.67
5697,25552,18990.00
5698,25552,18993.33
5699,25564,18996.67
5700,25584,19000.00
5701,25604,19003.33
5702,25632,19006.67
5703,25672,19010.00
5704,25712,19013.33
5705,25764,19016.67
5706,25812,19020.00
5707,25864,19023.33
5708,25904,19026.67
5709,25940,19030.00
5710,25968,19033.33
5711,25996,19036.67
5712,26016,19040.00
5713,26040,19043.33
5714,26060,19046.67
5715,26076,19050.00
5716,26040,19053.33
5717,25912,19056.67
5718,25716,19060.00
5719,25516,19063.33
5720,25364,19066.67
5721,25272,19070.00
5722,25244,19073.33
5723,25252,19076.67
5724,25284,19080.00
5725,25316,19083.33
5726,25340,19086.67
5727,25356,19090.00
5728,25376,19093.33
5729,25404,19096.67
5730,25436,19100.00
5731,25468,19103.33
5732,25496,19106.67
5733,25516,19110.00
5734,25532,19113.33
5735,25540,19116.67
5736,25560,19120.00
5737,25584,19123.33
5738,25616,19126.67
5739,25648,19130.00
5740,25684,19133.33
5741,25728,19136.67
5742,25764,19140.00
5743,25808,19143.33
5744,25848,19146.67
5745,25888,19150.00
5746,25924,19153.33
5747,25952,19156.67
5748,25972,19160.00
5749,25992,19163.33
5750,26016,19166.67
5751,26040,19170.00
5752,26072,19173.33
5753,26088,19176.67
5754,26040,19180.00
5755,25900,19183.33
5756,25708,19186.67
5757,25520,19190.00
5758,25392,19193.33
5759,25336,19196.67
5760,25336,19200.00
5761,25368,19203.33
5762,25404,19206.67
5763,25436,19210.00
5764,25460,19213.33
5765,25480,19216.67
5766,25512,19220.00
5767,25548,19223.33
5768,25588,19226.67
5769,25612,19230.00
5770,25624,19233.33
5771,25632,19236.67
5772,25636,19240.00
5773,25644,19243.33
5774,25648,19246.67
5775,25668,19250.00
5776,25688,19253.33
5777,25720,19256.67
5778,25752,19260.00
5779,25788,19263.33
5780,25828,19266.67
5781,25860,19270.00
5782,25896,19273.33
5783,25928,19276.67
5784,25952,19280.00
5785,25976,19283.33
5786,25996,19286.67
5787,26016,19290.00
5788,26040,19293.33
5789,26060,19296.67
5790,26044,19300.00
5791,25936,19303.33
5792,25756,19306.67
5793,25572,19310.00
5794,25428,19313.33
5795,25356,19316.67
5796,25352,19320.00
5797,25380,19323.33
5798,25428,19326.67
5799,25468,19330.00
5800,25504,19333.33
5801,25536,19336.67
5802,25576,19340.00
5803,25624,19343.33
5804,25668,19346.67
5805,25692,19350.00
5806,25712,19353.33
5807,25720,19356.67
5808,25720,19360.00
5809,25724,19363.33
5810,25732,19366.67
5811,25752,19370.00
5812,25772,19373.33
5813,25800,19376.67
5814,25832,19380.00
5815,25860,19383.33
5816,25892,19386.67
5817,25924,19390.00
5818,25956,19393.33
5819,25984,19396.67
5820,26008,19400.00
5821,26028,19403.33
5822,26048,19406.67
5823,26068,19410.00
5824,26088,19413.33
5825,26112,19416.67
5826,26116,19420.00
5827,26056,19423.33
5828,25912,19426.67
5829,25716,19430.00
5830,25536,19433.33
5831,25408,19436.67
5832,25360,19440.00
5833,25364,19443.33
5834,25396,19446.67
5835,25432,19450.00
5836,25472,19453.33
5837,25496,19456.67
5838,25516,19460.00
5839,25552,19463.33
5840,25592,19466.67
5841,25632,19470.00
5842,25656,19473.33
5843,25680,19476.67
5844,25688,19480.00
5845,25692,19483.33
5846,25704,19486.67
5847,25716,19490.00
5848,25740,19493.33
5849,25772,19496.67
5850,25804,19500.00
5851,25836,19503.33
5852,25876,19506.67
5853,25912,19510.00
5854,25952,19513.33
5855,25984,19516.67
5856,26012,19520.00
5857,26044,19523.33
5858,26076,19526.67
5859,26096,19530.00
5860,26124,19533.33
5861,26144,19536.67
5862,26168,19540.00
5863,26196,19543.33
5864,26212,19546.67
5865,26236,19550.00
5866,26264,19553.33
5867,26288,19556.67
5868,26264,19560.00
5869,26136,19563.33
5870,25936,19566.67
5871,25728,19570.00
5872,25564,19573.33
5873,25476,19576.67
5874,25444,19580.00
5875,25464,19583.33
5876,25496,19586.67
5877,25524,19590.00
5878,25544,19593.33
5879,25556,19596.67
5880,25580,19600.00
5881,25616,19603.33
5882,25656,19606.67
5883,25684,19610.00
5884,25712,19613.33
5885,25728,19616.67
5886,25736,19620.00
5887,25740,19623.33
5888,25752,19626.67
5889,25772,19630.00
5890,25796,19633.33
5891,25820,19636.67
5892,25856,19640.00
5893,25888,19643.33
5894,25924,19646.67
5895,25956,19650.00
5896,25988,19653.33
5897,26024,19656.67
5898,26056,19660.00
5899,26084,19663.33
5900,26112,19666.67
5901,26136,19670.00
5902,26168,19673.33
5903,26188,19676.67
5904,26212,19680.00
5905,26240,19683.33
5906,26268,19686.67
5907,26292,19690.00
5908,26320,19693.33
5909,26344,19696.67
5910,26368,19700.00
5911,26400,19703.33
5912,26420,19706.67
5913,26372,19710.00
5914,26224,19713.33
5915,26016,19716.67
5916,25804,19720.00
5917,25648,19723.33
5918,25560,19726.67
5919,25540,19730.00
5920,25560,19733.33
5921,25592,19736.67
5922,25620,19740.00
5923,25644,19743.33
5924,25660,19746.67
5925,25684,19750.00
5926,25716,19753.33
5927,25748,19756.67
5928,25772,19760.00
5929,25788,19763.33
5930,25796,19766.67
5931,25804,19770.00
5932,25812,19773.33
5933,25816,19776.67
5934,25832,19780.00
5935,25852,19783.33
5936,25880,19786.67
5937,25912,19790.00
5938,25944,19793.33
5939,25980,19796.67
5940,26016,19800.00
5941,26052,19803.33
5942,26084,19806.67
5943,26112,19810.00
5944,26140,19813.33
5945,26164,19816.67
5946,26184,19820.00
5947,26208,19823.33
5948,26228,19826.67
5949,26252,19830.00
5950,26276,19833.33
5951,26296,19836.67
5952,26320,19840.00
5953,26344,19843.33
5954,26372,19846.67
5955,26392,19850.00
5956,26412,19853.33
5957,26440,19856.67
5958,26464,19860.00
5959,26464,19863.33
5960,26380,19866.67
5961,26208,19870.00
5962,26000,19873.33
5963,25804,19876.67
5964,25672,19880.00
5965,25604,19883.33
5966,25592,19886.67
5967,25612,19890.00
5968,25648,19893.33
5969,25688,19896.67
5970,25716,19900.00
5971,25748,19903.33
5972,25780,19906.67
5973,25812,19910.00
5974,25836,19913.33
5975,25856,19916.67
5976,25860,19920.00
5977,25864,19923.33
5978,25860,19926.67
5979,25868,19930.00
5980,25876,19933.33
5981,25896,19936.67
5982,25920,19940.00
5983,25952,19943.33
5984,25984,19946.67
5985,26016,19950.00
5986,26048,19953.33
5987,26080,19956.67
5988,26112,19960.00
5989,26144,19963.33
5990,26168,19966.67
5991,26188,19970.00
5992,26212,19973.33
5993,26232,19976.67
5994,26252,19980.00
5995,26272,19983.33
5996,26292,19986.67
5997,26320,19990.00
5998,26344,19993.33
5999,26360,19996.67
