Sample_Index,IR_Value,Timestamp_ms
0,19252,0.00
1,20260,3.33
2,20996,6.67
3,21292,10.00
4,21364,13.33
5,21468,16.67
6,21656,20.00
7,19220,23.33
8,18936,26.67
9,18860,30.00
10,19472,33.33
11,20360,36.67
12,21308,40.00
13,22084,43.33
14,22428,46.67
15,22596,50.00
16,22804,53.33
17,22876,56.67
18,22728,60.00
19,22724,63.33
20,22536,66.67
21,22520,70.00
22,22732,73.33
23,22912,76.67
24,23072,80.00
25,23172,83.33
26,23220,86.67
27,23292,90.00
28,23400,93.33
29,23496,96.67
30,23564,100.00
31,23644,103.33
32,23732,106.67
33,23856,110.00
34,23972,113.33
35,24052,116.67
36,24144,120.00
37,24236,123.33
38,24336,126.67
39,24436,130.00
40,24536,133.33
41,24616,136.67
42,24688,140.00
43,24768,143.33
44,24836,146.67
45,24816,150.00
46,24668,153.33
47,24488,156.67
48,24328,160.00
49,24236,163.33
50,24188,166.67
51,24176,170.00
52,24188,173.33
53,24212,176.67
54,24224,180.00
55,24224,183.33
56,24208,186.67
57,24184,190.00
58,24156,193.33
59,24132,196.67
60,24120,200.00
61,24120,203.33
62,24124,206.67
63,24124,210.00
64,24120,213.33
65,24124,216.67
66,24116,220.00
67,24132,223.33
68,24160,226.67
69,24200,230.00
70,24220,233.33
71,24228,236.67
72,24248,240.00
73,24276,243.33
74,24324,246.67
75,24364,250.00
76,24372,253.33
77,24372,256.67
78,24364,260.00
79,24364,263.33
80,24368,266.67
81,24392,270.00
82,24444,273.33
83,24492,276.67
84,24560,280.00
85,24628,283.33
86,24704,286.67
87,24800,290.00
88,24924,293.33
89,25076,296.67
90,25196,300.00
91,25252,303.33
92,25208,306.67
93,25100,310.00
94,24976,313.33
95,24864,316.67
96,24776,320.00
97,24708,323.33
98,24676,326.67
99,24656,330.00
100,24656,333.33
101,24656,336.67
102,24660,340.00
103,24664,343.33
104,24668,346.67
105,24668,350.00
106,24664,353.33
107,24660,356.67
108,24656,360.00
109,24652,363.33
110,24652,366.67
111,24648,370.00
112,24652,373.33
113,24664,376.67
114,24672,380.00
115,24692,383.33
116,24696,386.67
117,24700,390.00
118,24704,393.33
119,24712,396.67
120,24708,400.00
121,24704,403.33
122,24692,406.67
123,24684,410.00
124,24676,413.33
125,24668,416.67
126,24660,420.00
127,24648,423.33
128,24636,426.67
129,24624,430.00
130,24628,433.33
131,24616,436.67
132,24604,440.00
133,24600,443.33
134,24600,446.67
135,24596,450.00
136,24596,453.33
137,24588,456.67
138,24576,460.00
139,24516,463.33
140,24404,466.67
141,24264,470.00
142,24116,473.33
143,23976,476.67
144,23860,480.00
145,23776,483.33
146,23716,486.67
147,23680,490.00
148,23664,493.33
149,23652,496.67
150,23656,500.00
151,23672,503.33
152,23676,506.67
153,23672,510.00
154,23656,513.33
155,23632,516.67
156,23616,520.00
157,23600,523.33
158,23584,526.67
159,23576,530.00
160,23580,533.33
161,23592,536.67
162,23612,540.00
163,23640,543.33
164,23672,546.67
165,23696,550.00
166,23712,553.33
167,23740,556.67
168,23764,560.00
169,23768,563.33
170,23776,566.67
171,23780,570.00
172,23780,573.33
173,23792,576.67
174,23800,580.00
175,23808,583.33
176,23824,586.67
177,23844,590.00
178,23860,593.33
179,23884,596.67
180,23904,600.00
181,23884,603.33
182,23808,606.67
183,23696,610.00
184,23572,613.33
185,23452,616.67
186,23364,620.00
187,23316,623.33
188,23292,626.67
189,23288,630.00
190,23288,633.33
191,23300,636.67
192,23308,640.00
193,23324,643.33
194,23336,646.67
195,23336,650.00
196,23332,653.33
197,23324,656.67
198,23312,660.00
199,23300,663.33
200,23296,666.67
201,23304,670.00
202,23320,673.33
203,23340,676.67
204,23364,680.00
205,23384,683.33
206,23408,686.67
207,23432,690.00
208,23456,693.33
209,23484,696.67
210,23508,700.00
211,23532,703.33
212,23552,706.67
213,23572,710.00
214,23588,713.33
215,23612,716.67
216,23632,720.00
217,23652,723.33
218,23672,726.67
219,23688,730.00
220,23704,733.33
221,23728,736.67
222,23744,740.00
223,23752,743.33
224,23712,746.67
225,23620,750.00
226,23504,753.33
227,23376,756.67
228,23268,760.00
229,23196,763.33
230,23156,766.67
231,23148,770.00
232,23160,773.33
233,23176,776.67
234,23184,780.00
235,23196,783.33
236,23216,786.67
237,23232,790.00
238,23240,793.33
239,23252,796.67
240,23256,800.00
241,23260,803.33
242,23256,806.67
243,23260,810.00
244,23272,813.33
245,23288,816.67
246,23316,820.00
247,23344,823.33
248,23364,826.67
249,23396,830.00
250,23420,833.33
251,23444,836.67
252,23472,840.00
253,23504,843.33
254,23528,846.67
255,23552,850.00
256,23564,853.33
257,23584,856.67
258,23604,860.00
259,23620,863.33
260,23640,866.67
261,23660,870.00
262,23684,873.33
263,23704,876.67
264,23720,880.00
265,23692,883.33
266,23616,886.67
267,23500,890.00
268,23364,893.33
269,23244,896.67
270,23168,900.00
271,23124,903.33
272,23120,906.67
273,23132,910.00
274,23152,913.33
275,23168,916.67
276,23188,920.00
277,23212,923.33
278,23224,926.67
279,23224,930.00
280,23224,933.33
281,23208,936.67
282,23200,940.00
283,23192,943.33
284,23188,946.67
285,23196,950.00
286,23208,953.33
287,23224,956.67
288,23248,960.00
289,23272,963.33
290,23296,966.67
291,23324,970.00
292,23348,973.33
293,23368,976.67
294,23392,980.00
295,23408,983.33
296,23424,986.67
297,23440,990.00
298,23452,993.33
299,23464,996.67
300,23484,1000.00
301,23500,1003.33
302,23524,1006.67
303,23528,1010.00
304,23480,1013.33
305,23380,1016.67
306,23240,1020.00
307,23092,1023.33
308,22972,1026.67
309,22896,1030.00
310,22864,1033.33
311,22864,1036.67
312,22880,1040.00
313,22900,1043.33
314,22916,1046.67
315,22936,1050.00
316,22956,1053.33
317,22972,1056.67
318,22976,1060.00
319,22980,1063.33
320,22976,1066.67
321,22968,1070.00
322,22968,1073.33
323,22968,1076.67
324,22976,1080.00
325,22996,1083.33
326,23020,1086.67
327,23044,1090.00
328,23076,1093.33
329,23104,1096.67
330,23132,1100.00
331,23160,1103.33
332,23184,1106.67
333,23208,1110.00
334,23228,1113.33
335,23248,1116.67
336,23264,1120.00
337,23280,1123.33
338,23304,1126.67
339,23324,1130.00
340,23340,1133.33
341,23352,1136.67
342,23316,1140.00
343,23212,1143.33
344,23056,1146.67
345,22880,1150.00
346,22736,1153.33
347,22640,1156.67
348,22604,1160.00
349,22600,1163.33
350,22604,1166.67
351,22616,1170.00
352,22616,1173.33
353,22620,1176.67
354,22632,1180.00
355,22644,1183.33
356,22664,1186.67
357,22676,1190.00
358,22680,1193.33
359,22680,1196.67
360,22680,1200.00
361,22684,1203.33
362,22692,1206.67
363,22716,1210.00
364,22740,1213.33
365,22772,1216.67
366,22804,1220.00
367,22840,1223.33
368,22872,1226.67
369,22908,1230.00
370,22940,1233.33
371,22968,1236.67
372,22996,1240.00
373,23020,1243.33
374,23044,1246.67
375,23068,1250.00
376,23092,1253.33
377,23112,1256.67
378,23140,1260.00
379,23164,1263.33
380,23184,1266.67
381,23212,1270.00
382,23236,1273.33
383,23264,1276.67
384,23284,1280.00
385,23244,1283.33
386,23124,1286.67
387,22948,1290.00
388,22756,1293.33
389,22592,1296.67
390,22488,1300.00
391,22440,1303.33
392,22428,1306.67
393,22432,1310.00
394,22428,1313.33
395,22424,1316.67
396,22416,1320.00
397,22420,1323.33
398,22428,1326.67
399,22448,1330.00
400,22456,1333.33
401,22464,1336.67
402,22468,1340.00
403,22464,1343.33
404,22464,1346.67
405,22472,1350.00
406,22484,1353.33
407,22508,1356.67
408,22540,1360.00
409,22572,1363.33
410,22612,1366.67
411,22648,1370.00
412,22684,1373.33
413,22720,1376.67
414,22752,1380.00
415,22780,1383.33
416,22812,1386.67
417,22840,1390.00
418,22864,1393.33
419,22892,1396.67
420,22924,1400.00
421,22948,1403.33
422,22972,1406.67
423,22996,1410.00
424,23016,1413.33
425,23032,1416.67
426,23040,1420.00
427,23060,1423.33
428,23068,1426.67
429,23080,1430.00
430,23096,1433.33
431,23120,1436.67
432,23144,1440.00
433,23164,1443.33
434,23192,1446.67
435,23204,1450.00
436,23156,1453.33
437,23020,1456.67
438,22824,1460.00
439,22596,1463.33
440,22400,1466.67
441,22272,1470.00
442,22208,1473.33
443,22192,1476.67
444,22196,1480.00
445,22212,1483.33
446,22216,1486.67
447,22216,1490.00
448,22224,1493.33
449,22236,1496.67
450,22248,1500.00
451,22252,1503.33
452,22252,1506.67
453,22248,1510.00
454,22244,1513.33
455,22240,1516.67
456,22248,1520.00
457,22264,1523.33
458,22284,1526.67
459,22320,1530.00
460,22356,1533.33
461,22400,1536.67
462,22436,1540.00
463,22472,1543.33
464,22500,1546.67
465,22536,1550.00
466,22560,1553.33
467,22584,1556.67
468,22608,1560.00
469,22628,1563.33
470,22652,1566.67
471,22676,1570.00
472,22700,1573.33
473,22720,1576.67
474,22744,1580.00
475,22768,1583.33
476,22792,1586.67
477,22820,1590.00
478,22840,1593.33
479,22864,1596.67
480,22888,1600.00
481,22916,1603.33
482,22936,1606.67
483,22912,1610.00
484,22804,1613.33
485,22620,1616.67
486,22404,1620.00
487,22204,1623.33
488,22076,1626.67
489,22008,1630.00
490,21980,1633.33
491,21988,1636.67
492,22000,1640.00
493,22008,1643.33
494,22012,1646.67
495,22024,1650.00
496,22036,1653.33
497,22044,1656.67
498,22048,1660.00
499,22044,1663.33
500,22036,1666.67
501,22024,1670.00
502,22020,1673.33
503,22028,1676.67
504,22044,1680.00
505,22076,1683.33
506,22104,1686.67
507,22140,1690.00
508,22180,1693.33
509,22220,1696.67
510,22264,1700.00
511,22308,1703.33
512,22348,1706.67
513,22384,1710.00
514,22416,1713.33
515,22448,1716.67
516,22476,1720.00
517,22504,1723.33
518,22536,1726.67
519,22568,1730.00
520,22600,1733.33
521,22636,1736.67
522,22668,1740.00
523,22704,1743.33
524,22752,1746.67
525,22800,1750.00
526,22824,1753.33
527,22776,1756.67
528,22640,1760.00
529,22460,1763.33
530,22272,1766.67
531,22112,1770.00
532,22012,1773.33
533,21976,1776.67
534,21988,1780.00
535,22012,1783.33
536,22036,1786.67
537,22052,1790.00
538,22072,1793.33
539,22104,1796.67
540,22148,1800.00
541,22184,1803.33
542,22204,1806.67
543,22216,1810.00
544,22224,1813.33
545,22232,1816.67
546,22236,1820.00
547,22248,1823.33
548,22272,1826.67
549,22300,1830.00
550,22336,1833.33
551,22380,1836.67
552,22428,1840.00
553,22480,1843.33
554,22536,1846.67
555,22580,1850.00
556,22624,1853.33
557,22656,1856.67
558,22692,1860.00
559,22720,1863.33
560,22752,1866.67
561,22780,1870.00
562,22816,1873.33
563,22856,1876.67
564,22892,1880.00
565,22920,1883.33
566,22952,1886.67
567,22992,1890.00
568,23032,1893.33
569,23060,1896.67
570,23056,1900.00
571,22968,1903.33
572,22800,1906.67
573,22592,1910.00
574,22392,1913.33
575,22244,1916.67
576,22164,1920.00
577,22136,1923.33
578,22152,1926.67
579,22176,1930.00
580,22212,1933.33
581,22240,1936.67
582,22272,1940.00
583,22308,1943.33
584,22344,1946.67
585,22368,1950.00
586,22384,1953.33
587,22396,1956.67
588,22404,1960.00
589,22408,1963.33
590,22416,1966.67
591,22440,1970.00
592,22472,1973.33
593,22512,1976.67
594,22560,1980.00
595,22600,1983.33
596,22640,1986.67
597,22676,1990.00
598,22708,1993.33
599,22740,1996.67
600,22776,2000.00
601,22804,2003.33
602,22836,2006.67
603,22864,2010.00
604,22892,2013.33
605,22924,2016.67
606,22956,2020.00
607,22988,2023.33
608,23020,2026.67
609,23056,2030.00
610,23092,2033.33
611,23132,2036.67
612,23168,2040.00
613,23144,2043.33
614,23032,2046.67
615,22852,2050.00
616,22644,2053.33
617,22468,2056.67
618,22352,2060.00
619,22292,2063.33
620,22288,2066.67
621,22308,2070.00
622,22336,2073.33
623,22364,2076.67
624,22388,2080.00
625,22416,2083.33
626,22452,2086.67
627,22480,2090.00
628,22508,2093.33
629,22524,2096.67
630,22532,2100.00
631,22540,2103.33
632,22548,2106.67
633,22560,2110.00
634,22588,2113.33
635,22616,2116.67
636,22660,2120.00
637,22704,2123.33
638,22752,2126.67
639,22800,2130.00
640,23236,2133.33
641,23268,2136.67
642,23300,2140.00
643,23328,2143.33
644,23356,2146.67
645,23384,2150.00
646,23412,2153.33
647,23436,2156.67
648,23456,2160.00
649,23480,2163.33
650,23504,2166.67
651,23528,2170.00
652,23556,2173.33
653,23580,2176.67
654,23608,2180.00
655,23628,2183.33
656,23652,2186.67
657,23676,2190.00
658,23704,2193.33
659,23728,2196.67
660,23748,2200.00
661,23776,2203.33
662,23772,2206.67
663,23724,2210.00
664,23632,2213.33
665,23532,2216.67
666,23432,2220.00
667,23352,2223.33
668,23312,2226.67
669,23296,2230.00
670,23300,2233.33
671,23308,2236.67
672,23316,2240.00
673,23320,2243.33
674,23328,2246.67
675,23336,2250.00
676,23348,2253.33
677,23356,2256.67
678,23360,2260.00
679,23364,2263.33
680,23364,2266.67
681,23364,2270.00
682,23372,2273.33
683,23384,2276.67
684,23396,2280.00
685,23420,2283.33
686,23440,2286.67
687,23468,2290.00
688,23492,2293.33
689,23516,2296.67
690,23540,2300.00
691,23560,2303.33
692,23580,2306.67
693,23604,2310.00
694,23624,2313.33
695,23640,2316.67
696,23656,2320.00
697,23676,2323.33
698,23696,2326.67
699,23720,2330.00
700,23740,2333.33
701,23760,2336.67
702,23776,2340.00
703,23800,2343.33
704,23816,2346.67
705,23836,2350.00
706,23856,2353.33
707,23872,2356.67
708,23892,2360.00
709,23908,2363.33
710,23932,2366.67
711,23936,2370.00
712,23904,2373.33
713,23824,2376.67
714,23728,2380.00
715,23624,2383.33
716,23536,2386.67
717,23476,2390.00
718,23448,2393.33
719,23440,2396.67
720,23440,2400.00
721,23440,2403.33
722,23440,2406.67
723,23440,2410.00
724,23444,2413.33
725,23448,2416.67
726,23448,2420.00
727,23448,2423.33
728,23452,2426.67
729,23444,2430.00
730,23444,2433.33
731,23444,2436.67
732,23448,2440.00
733,23456,2443.33
734,23472,2446.67
735,23484,2450.00
736,23504,2453.33
737,23524,2456.67
738,23544,2460.00
739,23564,2463.33
740,23588,2466.67
741,23604,2470.00
742,23624,2473.33
743,23640,2476.67
744,23652,2480.00
745,23672,2483.33
746,23684,2486.67
747,23704,2490.00
748,23720,2493.33
749,23740,2496.67
750,23756,2500.00
751,23772,2503.33
752,23792,2506.67
753,23812,2510.00
754,23836,2513.33
755,23848,2516.67
756,23872,2520.00
757,23892,2523.33
758,23908,2526.67
759,23932,2530.00
760,23944,2533.33
761,23908,2536.67
762,23832,2540.00
763,23740,2543.33
764,23644,2546.67
765,23556,2550.00
766,23496,2553.33
767,23468,2556.67
768,23468,2560.00
769,23472,2563.33
770,23484,2566.67
771,23492,2570.00
772,23496,2573.33
773,23504,2576.67
774,23512,2580.00
775,23516,2583.33
776,23512,2586.67
777,23508,2590.00
778,23500,2593.33
779,23492,2596.67
780,23492,2600.00
781,23492,2603.33
782,23500,2606.67
783,23508,2610.00
784,23528,2613.33
785,23544,2616.67
786,23568,2620.00
787,23588,2623.33
788,23608,2626.67
789,23628,2630.00
790,23644,2633.33
791,23656,2636.67
792,23668,2640.00
793,23684,2643.33
794,23700,2646.67
795,23712,2650.00
796,23728,2653.33
797,23744,2656.67
798,23764,2660.00
799,23780,2663.33
800,23796,2666.67
801,23816,2670.00
802,23836,2673.33
803,23852,2676.67
804,23872,2680.00
805,23872,2683.33
806,23824,2686.67
807,23744,2690.00
808,23652,2693.33
809,23552,2696.67
810,23476,2700.00
811,23428,2703.33
812,23404,2706.67
813,23404,2710.00
814,23416,2713.33
815,23428,2716.67
816,23440,2720.00
817,23448,2723.33
818,23460,2726.67
819,23464,2730.00
820,23464,2733.33
821,23456,2736.67
822,23448,2740.00
823,23440,2743.33
824,23432,2746.67
825,23428,2750.00
826,23436,2753.33
827,23448,2756.67
828,23468,2760.00
829,23484,2763.33
830,23504,2766.67
831,23528,2770.00
832,23544,2773.33
833,23560,2776.67
834,23580,2780.00
835,23596,2783.33
836,23612,2786.67
837,23624,2790.00
838,23640,2793.33
839,23656,2796.67
840,23668,2800.00
841,23684,2803.33
842,23700,2806.67
843,23712,2810.00
844,23732,2813.33
845,23748,2816.67
846,23764,2820.00
847,23768,2823.33
848,23712,2826.67
849,23620,2830.00
850,23508,2833.33
851,23384,2836.67
852,23280,2840.00
853,23208,2843.33
854,23168,2846.67
855,23152,2850.00
856,23152,2853.33
857,23164,2856.67
858,23164,2860.00
859,23176,2863.33
860,23184,2866.67
861,23192,2870.00
862,23196,2873.33
863,23196,2876.67
864,23188,2880.00
865,23184,2883.33
866,23180,2886.67
867,23180,2890.00
868,23188,2893.33
869,23204,2896.67
870,23224,2900.00
871,23248,2903.33
872,23272,2906.67
873,23300,2910.00
874,23324,2913.33
875,23348,2916.67
876,23368,2920.00
877,23392,2923.33
878,23412,2926.67
879,23432,2930.00
880,23444,2933.33
881,23464,2936.67
882,23480,2940.00
883,23496,2943.33
884,23516,2946.67
885,23532,2950.00
886,23512,2953.33
887,23448,2956.67
888,23340,2960.00
889,23196,2963.33
890,23056,2966.67
891,22944,2970.00
892,22876,2973.33
893,22844,2976.67
894,22844,2980.00
895,22852,2983.33
896,22860,2986.67
897,22868,2990.00
898,22884,2993.33
899,22896,2996.67
900,22904,3000.00
901,22916,3003.33
902,22924,3006.67
903,22928,3010.00
904,22920,3013.33
905,22920,3016.67
906,22928,3020.00
907,22940,3023.33
908,22960,3026.67
909,22984,3030.00
910,23016,3033.33
911,23044,3036.67
912,23076,3040.00
913,23108,3043.33
914,23140,3046.67
915,23164,3050.00
916,23188,3053.33
917,23212,3056.67
918,23232,3060.00
919,23252,3063.33
920,23272,3066.67
921,23284,3070.00
922,23260,3073.33
923,23180,3076.67
924,23044,3080.00
925,22888,3083.33
926,22752,3086.67
927,22664,3090.00
928,22628,3093.33
929,22624,3096.67
930,22640,3100.00
931,22656,3103.33
932,22668,3106.67
933,22680,3110.00
934,22700,3113.33
935,22724,3116.67
936,22748,3120.00
937,22764,3123.33
938,22772,3126.67
939,22776,3130.00
940,22784,3133.33
941,22784,3136.67
942,22796,3140.00
943,22816,3143.33
944,22840,3146.67
945,22868,3150.00
946,22904,3153.33
947,22936,3156.67
948,22968,3160.00
949,22996,3163.33
950,23028,3166.67
951,23052,3170.00
952,23076,3173.33
953,23096,3176.67
954,23116,3180.00
955,23136,3183.33
956,23156,3186.67
957,23168,3190.00
958,23148,3193.33
959,23068,3196.67
960,22932,3200.00
961,22768,3203.33
962,22636,3206.67
963,22544,3210.00
964,22512,3213.33
965,22508,3216.67
966,22528,3220.00
967,22544,3223.33
968,22560,3226.67
969,22576,3230.00
970,22600,3233.33
971,22628,3236.67
972,22656,3240.00
973,22668,3243.33
974,22680,3246.67
975,22688,3250.00
976,22692,3253.33
977,22704,3256.67
978,22720,3260.00
979,22744,3263.33
980,22776,3266.67
981,22808,3270.00
982,22844,3273.33
983,22880,3276.67
984,22916,3280.00
985,22948,3283.33
986,22980,3286.67
987,23000,3290.00
988,23028,3293.33
989,23048,3296.67
990,23072,3300.00
991,23100,3303.33
992,23116,3306.67
993,23104,3310.00
994,23028,3313.33
995,22904,3316.67
996,22764,3320.00
997,22640,3323.33
998,22568,3326.67
999,22532,3330.00
1000,22540,3333.33
1001,22556,3336.67
1002,22568,3340.00
1003,22584,3343.33
1004,22600,3346.67
1005,22624,3350.00
1006,22656,3353.33
1007,22676,3356.67
1008,22692,3360.00
1009,22704,3363.33
1010,22708,3366.67
1011,22720,3370.00
1012,22728,3373.33
1013,22744,3376.67
1014,22772,3380.00
1015,22792,3383.33
1016,22828,3386.67
1017,22860,3390.00
1018,22892,3393.33
1019,22928,3396.67
1020,22956,3400.00
1021,22992,3403.33
1022,23016,3406.67
1023,23040,3410.00
1024,23064,3413.33
1025,23088,3416.67
1026,23112,3420.00
1027,23132,3423.33
1028,23152,3426.67
1029,23176,3430.00
1030,23204,3433.33
1031,23228,3436.67
1032,23232,3440.00
1033,23176,3443.33
1034,23064,3446.67
1035,22924,3450.00
1036,22780,3453.33
1037,22676,3456.67
1038,22624,3460.00
1039,22620,3463.33
1040,22628,3466.67
1041,22644,3470.00
1042,22656,3473.33
1043,22672,3476.67
1044,22692,3480.00
1045,22716,3483.33
1046,22740,3486.67
1047,22760,3490.00
1048,22772,3493.33
1049,22776,3496.67
1050,22788,3500.00
1051,22792,3503.33
1052,22808,3506.67
1053,22828,3510.00
1054,22852,3513.33
1055,22880,3516.67
1056,22912,3520.00
1057,22940,3523.33
1058,22968,3526.67
1059,22996,3530.00
1060,23028,3533.33
1061,23048,3536.67
1062,23076,3540.00
1063,23092,3543.33
1064,23116,3546.67
1065,23136,3550.00
1066,23160,3553.33
1067,23176,3556.67
1068,23196,3560.00
1069,23216,3563.33
1070,23240,3566.67
1071,23264,3570.00
1072,23284,3573.33
1073,23304,3576.67
1074,23328,3580.00
1075,23352,3583.33
1076,23376,3586.67
1077,23400,3590.00
1078,23416,3593.33
1079,23396,3596.67
1080,23308,3600.00
1081,23180,3603.33
1082,23020,3606.67
1083,22880,3610.00
1084,22788,3613.33
1085,22748,3616.67
1086,22748,3620.00
1087,22764,3623.33
1088,22788,3626.67
1089,22808,3630.00
1090,22828,3633.33
1091,22848,3636.67
1092,22864,3640.00
1093,22876,3643.33
1094,22880,3646.67
1095,22880,3650.00
1096,22872,3653.33
1097,22872,3656.67
1098,22880,3660.00
1099,22892,3663.33
1100,22912,3666.67
1101,22940,3670.00
1102,22968,3673.33
1103,23000,3676.67
1104,23028,3680.00
1105,23056,3683.33
1106,23088,3686.67
1107,23116,3690.00
1108,23140,3693.33
1109,23156,3696.67
1110,23176,3700.00
1111,23192,3703.33
1112,23208,3706.67
1113,23228,3710.00
1114,23244,3713.33
1115,23260,3716.67
1116,23280,3720.00
1117,23296,3723.33
1118,23320,3726.67
1119,23344,3730.00
1120,23368,3733.33
1121,23388,3736.67
1122,23372,3740.00
1123,23284,3743.33
1124,23160,3746.67
1125,23012,3750.00
1126,22872,3753.33
1127,22780,3756.67
1128,22744,3760.00
1129,22740,3763.33
1130,22760,3766.67
1131,22780,3770.00
1132,22800,3773.33
1133,22820,3776.67
1134,22840,3780.00
1135,22864,3783.33
1136,22876,3786.67
1137,22888,3790.00
1138,22888,3793.33
1139,22888,3796.67
1140,22888,3800.00
1141,22892,3803.33
1142,22908,3806.67
1143,22928,3810.00
1144,22960,3813.33
1145,22992,3816.67
1146,23024,3820.00
1147,23056,3823.33
1148,23088,3826.67
1149,23124,3830.00
1150,23148,3833.33
1151,23172,3836.67
1152,23196,3840.00
1153,23216,3843.33
1154,23232,3846.67
1155,23256,3850.00
1156,23276,3853.33
1157,23296,3856.67
1158,23320,3860.00
1159,23340,3863.33
1160,23364,3866.67
1161,23388,3870.00
1162,23412,3873.33
1163,23436,3876.67
1164,23460,3880.00
1165,23476,3883.33
1166,23456,3886.67
1167,23372,3890.00
1168,23236,3893.33
1169,23068,3896.67
1170,22904,3900.00
1171,22788,3903.33
1172,22732,3906.67
1173,22712,3910.00
1174,22716,3913.33
1175,22732,3916.67
1176,22744,3920.00
1177,22752,3923.33
1178,22764,3926.67
1179,22784,3930.00
1180,22800,3933.33
1181,22812,3936.67
1182,22816,3940.00
1183,22824,3943.33
1184,22824,3946.67
1185,22832,3950.00
1186,22840,3953.33
1187,22856,3956.67
1188,22884,3960.00
1189,22912,3963.33
1190,22944,3966.67
1191,22984,3970.00
1192,23016,3973.33
1193,23044,3976.67
1194,23076,3980.00
1195,23104,3983.33
1196,23132,3986.67
1197,23156,3990.00
1198,23172,3993.33
1199,23196,3996.67
1200,23216,4000.00
1201,23240,4003.33
1202,23260,4006.67
1203,23288,4010.00
1204,23312,4013.33
1205,23340,4016.67
1206,23364,4020.00
1207,23396,4023.33
1208,23416,4026.67
1209,23444,4030.00
1210,23468,4033.33
1211,23492,4036.67
1212,23516,4040.00
1213,23540,4043.33
1214,23564,4046.67
1215,23560,4050.00
1216,23480,4053.33
1217,23344,4056.67
1218,23176,4060.00
1219,22992,4063.33
1220,22852,4066.67
1221,22768,4070.00
1222,22736,4073.33
1223,22740,4076.67
1224,22752,4080.00
1225,22764,4083.33
1226,22772,4086.67
1227,22776,4090.00
1228,22788,4093.33
1229,22804,4096.67
1230,22816,4100.00
1231,22824,4103.33
1232,22828,4106.67
1233,22832,4110.00
1234,22836,4113.33
1235,22840,4116.67
1236,22852,4120.00
1237,22876,4123.33
1238,22900,4126.67
1239,22932,4130.00
1240,22968,4133.33
1241,22996,4136.67
1242,23036,4140.00
1243,23064,4143.33
1244,23096,4146.67
1245,23128,4150.00
1246,23152,4153.33
1247,23176,4156.67
1248,23200,4160.00
1249,23224,4163.33
1250,23244,4166.67
1251,23268,4170.00
1252,23292,4173.33
1253,23316,4176.67
1254,23340,4180.00
1255,23368,4183.33
1256,23392,4186.67
1257,23424,4190.00
1258,23448,4193.33
1259,23472,4196.67
1260,23504,4200.00
1261,23528,4203.33
1262,23552,4206.67
1263,23576,4210.00
1264,23600,4213.33
1265,23620,4216.67
1266,23612,4220.00
1267,23532,4223.33
1268,23388,4226.67
1269,23216,4230.00
1270,23036,4233.33
1271,22900,4236.67
1272,22816,4240.00
1273,22776,4243.33
1274,22780,4246.67
1275,22796,4250.00
1276,22812,4253.33
1277,22824,4256.67
1278,22840,4260.00
1279,22856,4263.33
1280,22876,4266.67
1281,22880,4270.00
1282,22884,4273.33
1283,22876,4276.67
1284,22876,4280.00
1285,22872,4283.33
1286,22876,4286.67
1287,22884,4290.00
1288,22908,4293.33
1289,22932,4296.67
1290,22968,4300.00
1291,23004,4303.33
1292,23036,4306.67
1293,23072,4310.00
1294,23104,4313.33
1295,23136,4316.67
1296,23164,4320.00
1297,23184,4323.33
1298,23208,4326.67
1299,23224,4330.00
1300,23248,4333.33
1301,23268,4336.67
1302,23292,4340.00
1303,23312,4343.33
1304,23340,4346.67
1305,23360,4350.00
1306,23384,4353.33
1307,23408,4356.67
1308,23440,4360.00
1309,23464,4363.33
1310,23460,4366.67
1311,23388,4370.00
1312,23264,4373.33
1313,23108,4376.67
1314,22952,4380.00
1315,22832,4383.33
1316,22760,4386.67
1317,22732,4390.00
1318,22748,4393.33
1319,22772,4396.67
1320,22800,4400.00
1321,22832,4403.33
1322,22864,4406.67
1323,22888,4410.00
1324,22908,4413.33
1325,22912,4416.67
1326,22912,4420.00
1327,22908,4423.33
1328,22892,4426.67
1329,22888,4430.00
1330,22892,4433.33
1331,22904,4436.67
1332,22928,4440.00
1333,22960,4443.33
1334,23000,4446.67
1335,23036,4450.00
1336,23076,4453.33
1337,23112,4456.67
1338,23148,4460.00
1339,23180,4463.33
1340,23204,4466.67
1341,23224,4470.00
1342,23244,4473.33
1343,23256,4476.67
1344,23272,4480.00
1345,23284,4483.33
1346,23304,4486.67
1347,23324,4490.00
1348,23340,4493.33
1349,23324,4496.67
1350,23244,4500.00
1351,23112,4503.33
1352,22960,4506.67
1353,22816,4510.00
1354,22712,4513.33
1355,22656,4516.67
1356,22644,4520.00
1357,22656,4523.33
1358,22684,4526.67
1359,22708,4530.00
1360,22740,4533.33
1361,22772,4536.67
1362,22800,4540.00
1363,22816,4543.33
1364,22824,4546.67
1365,22824,4550.00
1366,22812,4553.33
1367,22808,4556.67
1368,22808,4560.00
1369,22816,4563.33
1370,22836,4566.67
1371,22864,4570.00
1372,22900,4573.33
1373,22940,4576.67
1374,22976,4580.00
1375,23016,4583.33
1376,23056,4586.67
1377,23088,4590.00
1378,23116,4593.33
1379,23140,4596.67
1380,23164,4600.00
1381,23184,4603.33
1382,23204,4606.67
1383,23228,4610.00
1384,23236,4613.33
1385,23180,4616.67
1386,23064,4620.00
1387,22904,4623.33
1388,22736,4626.67
1389,22604,4630.00
1390,22524,4633.33
1391,22488,4636.67
1392,22492,4640.00
1393,22504,4643.33
1394,22520,4646.67
1395,22524,4650.00
1396,22536,4653.33
1397,22560,4656.67
1398,22580,4660.00
1399,22600,4663.33
1400,22604,4666.67
1401,22612,4670.00
1402,22612,4673.33
1403,22604,4676.67
1404,22612,4680.00
1405,22628,4683.33
1406,22656,4686.67
1407,22688,4690.00
1408,22728,4693.33
1409,22768,4696.67
1410,22808,4700.00
1411,22848,4703.33
1412,22884,4706.67
1413,22916,4710.00
1414,22944,4713.33
1415,22972,4716.67
1416,22996,4720.00
1417,23016,4723.33
1418,23040,4726.67
1419,23068,4730.00
1420,23092,4733.33
1421,23104,4736.67
1422,23064,4740.00
1423,22940,4743.33
1424,22768,4746.67
1425,22580,4750.00
1426,22424,4753.33
1427,22324,4756.67
1428,22280,4760.00
1429,22264,4763.33
1430,22264,4766.67
1431,22268,4770.00
1432,22264,4773.33
1433,22260,4776.67
1434,22276,4780.00
1435,22300,4783.33
1436,22332,4786.67
1437,22364,4790.00
1438,22380,4793.33
1439,22396,4796.67
1440,22404,4800.00
1441,22412,4803.33
1442,22428,4806.67
1443,22452,4810.00
1444,22484,4813.33
1445,22520,4816.67
1446,22564,4820.00
1447,22604,4823.33
1448,22648,4826.67
1449,22692,4830.00
1450,22732,4833.33
1451,22768,4836.67
1452,22796,4840.00
1453,22824,4843.33
1454,22852,4846.67
1455,22880,4850.00
1456,22904,4853.33
1457,22932,4856.67
1458,22960,4860.00
1459,22984,4863.33
1460,23016,4866.67
1461,23044,4870.00
1462,23076,4873.33
1463,23104,4876.67
1464,23132,4880.00
1465,23164,4883.33
1466,23192,4886.67
1467,23220,4890.00
1468,23244,4893.33
1469,23268,4896.67
1470,23292,4900.00
1471,23316,4903.33
1472,23332,4906.67
1473,23360,4910.00
1474,23384,4913.33
1475,23404,4916.67
1476,23372,4920.00
1477,23252,4923.33
1478,23056,4926.67
1479,22820,4930.00
1480,22608,4933.33
1481,22456,4936.67
1482,22368,4940.00
1483,22336,4943.33
1484,22328,4946.67
1485,22332,4950.00
1486,22328,4953.33
1487,22312,4956.67
1488,22304,4960.00
1489,22316,4963.33
1490,22328,4966.67
1491,22348,4970.00
1492,22364,4973.33
1493,22372,4976.67
1494,22380,4980.00
1495,22384,4983.33
1496,22396,4986.67
1497,22412,4990.00
1498,22436,4993.33
1499,22472,4996.67
1500,22508,5000.00
1501,22548,5003.33
1502,22588,5006.67
1503,22628,5010.00
1504,22668,5013.33
1505,22704,5016.67
1506,22736,5020.00
1507,22768,5023.33
1508,22796,5026.67
1509,22820,5030.00
1510,22844,5033.33
1511,22872,5036.67
1512,22900,5040.00
1513,22928,5043.33
1514,22952,5046.67
1515,22984,5050.00
1516,23012,5053.33
1517,23040,5056.67
1518,23072,5060.00
1519,23100,5063.33
1520,23136,5066.67
1521,23160,5070.00
1522,23188,5073.33
1523,23216,5076.67
1524,23248,5080.00
1525,23268,5083.33
1526,23284,5086.67
1527,23232,5090.00
1528,23096,5093.33
1529,22896,5096.67
1530,22684,5100.00
1531,22504,5103.33
1532,22380,5106.67
1533,22320,5110.00
1534,22308,5113.33
1535,22316,5116.67
1536,22324,5120.00
1537,22328,5123.33
1538,22324,5126.67
1539,22332,5130.00
1540,22348,5133.33
1541,22368,5136.67
1542,22388,5140.00
1543,22400,5143.33
1544,22408,5146.67
1545,22416,5150.00
1546,22424,5153.33
1547,22440,5156.67
1548,22464,5160.00
1549,22488,5163.33
1550,22528,5166.67
1551,22568,5170.00
1552,22612,5173.33
1553,22652,5176.67
1554,22692,5180.00
1555,22736,5183.33
1556,22772,5186.67
1557,22804,5190.00
1558,22832,5193.33
1559,22864,5196.67
1560,22892,5200.00
1561,22920,5203.33
1562,22948,5206.67
1563,22976,5210.00
1564,23004,5213.33
1565,23028,5216.67
1566,23060,5220.00
1567,23088,5223.33
1568,23116,5226.67
1569,23140,5230.00
1570,23164,5233.33
1571,23192,5236.67
1572,23216,5240.00
1573,23244,5243.33
1574,23268,5246.67
1575,23256,5250.00
1576,23160,5253.33
1577,22992,5256.67
1578,22788,5260.00
1579,22592,5263.33
1580,22452,5266.67
1581,22368,5270.00
1582,22340,5273.33
1583,22348,5276.67
1584,22364,5280.00
1585,22380,5283.33
1586,22392,5286.67
1587,22404,5290.00
1588,22420,5293.33
1589,22436,5296.67
1590,22444,5300.00
1591,22444,5303.33
1592,22444,5306.67
1593,22436,5310.00
1594,22436,5313.33
1595,22448,5316.67
1596,22464,5320.00
1597,22496,5323.33
1598,22532,5326.67
1599,22572,5330.00
1600,22616,5333.33
1601,22660,5336.67
1602,22700,5340.00
1603,22740,5343.33
1604,22776,5346.67
1605,22808,5350.00
1606,22836,5353.33
1607,22856,5356.67
1608,22880,5360.00
1609,22904,5363.33
1610,22928,5366.67
1611,22956,5370.00
1612,22980,5373.33
1613,23008,5376.67
1614,23028,5380.00
1615,23056,5383.33
1616,23084,5386.67
1617,23112,5390.00
1618,23144,5393.33
1619,23172,5396.67
1620,23196,5400.00
1621,23164,5403.33
1622,23044,5406.67
1623,22860,5410.00
1624,22656,5413.33
1625,22472,5416.67
1626,22348,5420.00
1627,22276,5423.33
1628,22264,5426.67
1629,22276,5430.00
1630,22296,5433.33
1631,22320,5436.67
1632,22340,5440.00
1633,22364,5443.33
1634,22392,5446.67
1635,22408,5450.00
1636,22424,5453.33
1637,22432,5456.67
1638,22428,5460.00
1639,22420,5463.33
1640,22424,5466.67
1641,22428,5470.00
1642,22444,5473.33
1643,22472,5476.67
1644,22508,5480.00
1645,22544,5483.33
1646,22580,5486.67
1647,22616,5490.00
1648,22652,5493.33
1649,22688,5496.67
1650,22716,5500.00
1651,22744,5503.33
1652,22772,5506.67
1653,22792,5510.00
1654,22812,5513.33
1655,22828,5516.67
1656,22852,5520.00
1657,22872,5523.33
1658,22892,5526.67
1659,22912,5530.00
1660,22932,5533.33
1661,22956,5536.67
1662,22980,5540.00
1663,23004,5543.33
1664,23032,5546.67
1665,23052,5550.00
1666,23000,5553.33
1667,22856,5556.67
1668,22644,5560.00
1669,22420,5563.33
1670,22224,5566.67
1671,22100,5570.00
1672,22044,5573.33
1673,22032,5576.67
1674,22044,5580.00
1675,22064,5583.33
1676,22068,5586.67
1677,22072,5590.00
1678,22076,5593.33
1679,22088,5596.67
1680,22108,5600.00
1681,22124,5603.33
1682,22136,5606.67
1683,22136,5610.00
1684,22140,5613.33
1685,22144,5616.67
1686,22160,5620.00
1687,22184,5623.33
1688,22216,5626.67
1689,22260,5630.00
1690,22308,5633.33
1691,22356,5636.67
1692,22408,5640.00
1693,22460,5643.33
1694,22504,5646.67
1695,22544,5650.00
1696,22588,5653.33
1697,22624,5656.67
1698,22664,5660.00
1699,22700,5663.33
1700,22732,5666.67
1701,22768,5670.00
1702,22808,5673.33
1703,22840,5676.67
1704,22872,5680.00
1705,22908,5683.33
1706,22952,5686.67
1707,22988,5690.00
1708,22996,5693.33
1709,22924,5696.67
1710,22768,5700.00
1711,22564,5703.33
1712,22372,5706.67
1713,22220,5710.00
1714,22136,5713.33
1715,22112,5716.67
1716,22120,5720.00
1717,22140,5723.33
1718,22160,5726.67
1719,22180,5730.00
1720,22200,5733.33
1721,22228,5736.67
1722,22264,5740.00
1723,22284,5743.33
1724,22296,5746.67
1725,22304,5750.00
1726,22304,5753.33
1727,22308,5756.67
1728,22324,5760.00
1729,22340,5763.33
1730,22376,5766.67
1731,22412,5770.00
1732,22456,5773.33
1733,22508,5776.67
1734,22556,5780.00
1735,22608,5783.33
1736,22648,5786.67
1737,22688,5790.00
1738,22716,5793.33
1739,22744,5796.67
1740,22764,5800.00
1741,22784,5803.33
1742,22800,5806.67
1743,22828,5810.00
1744,22852,5813.33
1745,22876,5816.67
1746,22892,5820.00
1747,22844,5823.33
1748,22716,5826.67
1749,22532,5830.00
1750,22352,5833.33
1751,22192,5836.67
1752,22096,5840.00
1753,22060,5843.33
1754,22056,5846.67
1755,22072,5850.00
1756,22092,5853.33
1757,22108,5856.67
1758,22132,5860.00
1759,22164,5863.33
1760,22196,5866.67
1761,22216,5870.00
1762,22224,5873.33
1763,22224,5876.67
1764,22224,5880.00
1765,22216,5883.33
1766,22224,5886.67
1767,22244,5890.00
1768,22276,5893.33
1769,22312,5896.67
1770,22356,5900.00
1771,22404,5903.33
1772,22448,5906.67
1773,22496,5910.00
1774,22524,5913.33
1775,22552,5916.67
1776,22576,5920.00
1777,22600,5923.33
1778,22620,5926.67
1779,22644,5930.00
1780,22672,5933.33
1781,22688,5936.67
1782,22656,5940.00
1783,22548,5943.33
1784,22388,5946.67
1785,22224,5950.00
1786,22088,5953.33
1787,22008,5956.67
1788,21980,5960.00
1789,21984,5963.33
1790,22008,5966.67
1791,22036,5970.00
1792,22068,5973.33
1793,22108,5976.67
1794,22148,5980.00
1795,22184,5983.33
1796,22208,5986.67
1797,22216,5990.00
1798,22212,5993.33
1799,22200,5996.67
1800,22192,6000.00
1801,22196,6003.33
1802,22216,6006.67
1803,22240,6010.00
1804,22276,6013.33
1805,22316,6016.67
1806,22360,6020.00
1807,22400,6023.33
1808,22436,6026.67
1809,22468,6030.00
1810,22496,6033.33
1811,22512,6036.67
1812,22536,6040.00
1813,22564,6043.33
1814,22584,6046.67
1815,22564,6050.00
1816,22472,6053.33
1817,22332,6056.67
1818,22172,6060.00
1819,22032,6063.33
1820,21948,6066.67
1821,21924,6070.00
1822,21932,6073.33
1823,21956,6076.67
1824,21984,6080.00
1825,22008,6083.33
1826,22036,6086.67
1827,22068,6090.00
1828,22104,6093.33
1829,22136,6096.67
1830,22156,6100.00
1831,22160,6103.33
1832,22168,6106.67
1833,22176,6110.00
1834,22188,6113.33
1835,22216,6116.67
1836,22252,6120.00
1837,22296,6123.33
1838,22340,6126.67
1839,22388,6130.00
1840,22436,6133.33
1841,22480,6136.67
1842,22520,6140.00
1843,22556,6143.33
1844,22592,6146.67
1845,22624,6150.00
1846,22652,6153.33
1847,22684,6156.67
1848,22708,6160.00
1849,22740,6163.33
1850,22768,6166.67
1851,22796,6170.00
1852,22832,6173.33
1853,22864,6176.67
1854,22892,6180.00
1855,22900,6183.33
1856,22832,6186.67
1857,22688,6190.00
1858,22516,6193.33
1859,22356,6196.67
1860,22240,6200.00
1861,22176,6203.33
1862,22152,6206.67
1863,22144,6210.00
1864,22140,6213.33
1865,22140,6216.67
1866,22136,6220.00
1867,22148,6223.33
1868,22164,6226.67
1869,22200,6230.00
1870,22236,6233.33
1871,22264,6236.67
1872,22292,6240.00
1873,22316,6243.33
1874,22336,6246.67
1875,22360,6250.00
1876,22396,6253.33
1877,22436,6256.67
1878,22480,6260.00
1879,22532,6263.33
1880,22584,6266.67
1881,22632,6270.00
1882,22676,6273.33
1883,22720,6276.67
1884,22760,6280.00
1885,22796,6283.33
1886,22832,6286.67
1887,22864,6290.00
1888,22896,6293.33
1889,22928,6296.67
1890,22960,6300.00
1891,22996,6303.33
1892,23028,6306.67
1893,23064,6310.00
1894,23092,6313.33
1895,23128,6316.67
1896,23156,6320.00
1897,23188,6323.33
1898,23216,6326.67
1899,23240,6330.00
1900,23268,6333.33
1901,23300,6336.67
1902,23332,6340.00
1903,23340,6343.33
1904,23308,6346.67
1905,23236,6350.00
1906,23144,6353.33
1907,23056,6356.67
1908,22984,6360.00
1909,22948,6363.33
1910,22940,6366.67
1911,22944,6370.00
1912,22944,6373.33
1913,22948,6376.67
1914,22940,6380.00
1915,22940,6383.33
1916,22952,6386.67
1917,22972,6390.00
1918,22988,6393.33
1919,23004,6396.67
1920,23016,6400.00
1921,23028,6403.33
1922,23036,6406.67
1923,23048,6410.00
1924,23068,6413.33
1925,23088,6416.67
1926,23116,6420.00
1927,23140,6423.33
1928,23168,6426.67
1929,23196,6430.00
1930,23224,6433.33
1931,23248,6436.67
1932,23276,6440.00
1933,23296,6443.33
1934,23320,6446.67
1935,23344,6450.00
1936,23368,6453.33
1937,23392,6456.67
1938,23420,6460.00
1939,23444,6463.33
1940,23468,6466.67
1941,23492,6470.00
1942,23516,6473.33
1943,23544,6476.67
1944,23568,6480.00
1945,23592,6483.33
1946,23620,6486.67
1947,23640,6490.00
1948,23668,6493.33
1949,23688,6496.67
1950,23712,6500.00
1951,23740,6503.33
1952,23768,6506.67
1953,23788,6510.00
1954,23816,6513.33
1955,23832,6516.67
1956,23816,6520.00
1957,23776,6523.33
1958,23724,6526.67
1959,23676,6530.00
1960,23648,6533.33
1961,23640,6536.67
1962,23644,6540.00
1963,23652,6543.33
1964,23664,6546.67
1965,23672,6550.00
1966,23676,6553.33
1967,23680,6556.67
1968,23692,6560.00
1969,23704,6563.33
1970,23716,6566.67
1971,23724,6570.00
1972,23732,6573.33
1973,23736,6576.67
1974,23744,6580.00
1975,23756,6583.33
1976,23764,6586.67
1977,23776,6590.00
1978,23792,6593.33
1979,23808,6596.67
1980,23828,6600.00
1981,23844,6603.33
1982,23860,6606.67
1983,23876,6610.00
1984,23896,6613.33
1985,23912,6616.67
1986,23928,6620.00
1987,23948,6623.33
1988,23964,6626.67
1989,23976,6630.00
1990,23996,6633.33
1991,24008,6636.67
1992,24028,6640.00
1993,24044,6643.33
1994,24064,6646.67
1995,24080,6650.00
1996,24096,6653.33
1997,24116,6656.67
1998,24136,6660.00
1999,24156,6663.33
2000,24172,6666.67
2001,24192,6670.00
2002,24208,6673.33
2003,24228,6676.67
2004,24244,6680.00
2005,24264,6683.33
2006,24284,6686.67
2007,24292,6690.00
2008,24284,6693.33
2009,24256,6696.67
2010,24220,6700.00
2011,24200,6703.33
2012,24192,6706.67
2013,24204,6710.00
2014,24216,6713.33
2015,24236,6716.67
2016,24256,6720.00
2017,24272,6723.33
2018,24276,6726.67
2019,24288,6730.00
2020,24296,6733.33
2021,24304,6736.67
2022,24308,6740.00
2023,24316,6743.33
2024,24324,6746.67
2025,24328,6750.00
2026,24336,6753.33
2027,24348,6756.67
2028,24360,6760.00
2029,24368,6763.33
2030,24388,6766.67
2031,24404,6770.00
2032,24412,6773.33
2033,24424,6776.67
2034,24440,6780.00
2035,24448,6783.33
2036,24460,6786.67
2037,24472,6790.00
2038,24484,6793.33
2039,24488,6796.67
2040,24496,6800.00
2041,24508,6803.33
2042,24520,6806.67
2043,24528,6810.00
2044,24540,6813.33
2045,24552,6816.67
2046,24564,6820.00
2047,24580,6823.33
2048,24592,6826.67
2049,24608,6830.00
2050,24620,6833.33
2051,24628,6836.67
2052,24640,6840.00
2053,24652,6843.33
2054,24664,6846.67
2055,24676,6850.00
2056,24688,6853.33
2057,24700,6856.67
2058,24708,6860.00
2059,24724,6863.33
2060,24728,6866.67
2061,24708,6870.00
2062,24680,6873.33
2063,24652,6876.67
2064,24640,6880.00
2065,24644,6883.33
2066,24656,6886.67
2067,24676,6890.00
2068,24692,6893.33
2069,24708,6896.67
2070,24720,6900.00
2071,24728,6903.33
2072,24732,6906.67
2073,24740,6910.00
2074,24740,6913.33
2075,24744,6916.67
2076,24752,6920.00
2077,24756,6923.33
2078,24764,6926.67
2079,24768,6930.00
2080,24776,6933.33
2081,24784,6936.67
2082,24796,6940.00
2083,24804,6943.33
2084,24816,6946.67
2085,24828,6950.00
2086,24836,6953.33
2087,24844,6956.67
2088,24856,6960.00
2089,24864,6963.33
2090,24868,6966.67
2091,24880,6970.00
2092,24888,6973.33
2093,24892,6976.67
2094,24904,6980.00
2095,24908,6983.33
2096,24920,6986.67
2097,24924,6990.00
2098,24936,6993.33
2099,24944,6996.67
2100,24952,7000.00
2101,24964,7003.33
2102,24972,7006.67
2103,24976,7010.00
2104,24984,7013.33
2105,24992,7016.67
2106,25000,7020.00
2107,25008,7023.33
2108,25016,7026.67
2109,25024,7030.00
2110,25036,7033.33
2111,25044,7036.67
2112,25052,7040.00
2113,25048,7043.33
2114,25020,7046.67
2115,24992,7050.00
2116,24964,7053.33
2117,24956,7056.67
2118,24952,7060.00
2119,24972,7063.33
2120,24984,7066.67
2121,25004,7070.00
2122,25016,7073.33
2123,25024,7076.67
2124,25032,7080.00
2125,25036,7083.33
2126,25040,7086.67
2127,25044,7090.00
2128,25044,7093.33
2129,25044,7096.67
2130,25048,7100.00
2131,25048,7103.33
2132,25056,7106.67
2133,25060,7110.00
2134,25064,7113.33
2135,25076,7116.67
2136,25084,7120.00
2137,25096,7123.33
2138,25104,7126.67
2139,25116,7130.00
2140,25120,7133.33
2141,25124,7136.67
2142,25132,7140.00
2143,25140,7143.33
2144,25140,7146.67
2145,25144,7150.00
2146,25148,7153.33
2147,25156,7156.67
2148,25160,7160.00
2149,25168,7163.33
2150,25172,7166.67
2151,25184,7170.00
2152,25188,7173.33
2153,25192,7176.67
2154,25200,7180.00
2155,25208,7183.33
2156,25216,7186.67
2157,25220,7190.00
2158,25228,7193.33
2159,25232,7196.67
2160,25240,7200.00
2161,25240,7203.33
2162,25224,7206.67
2163,25192,7210.00
2164,25160,7213.33
2165,25140,7216.67
2166,25136,7220.00
2167,25140,7223.33
2168,25156,7226.67
2169,25168,7230.00
2170,25184,7233.33
2171,25188,7236.67
2172,25192,7240.00
2173,25196,7243.33
2174,25196,7246.67
2175,25200,7250.00
2176,25200,7253.33
2177,25196,7256.67
2178,25196,7260.00
2179,25192,7263.33
2180,25196,7266.67
2181,25196,7270.00
2182,25204,7273.33
2183,25208,7276.67
2184,25216,7280.00
2185,25224,7283.33
2186,25232,7286.67
2187,25240,7290.00
2188,25240,7293.33
2189,25248,7296.67
2190,25252,7300.00
2191,25256,7303.33
2192,25260,7306.67
2193,25264,7310.00
2194,25268,7313.33
2195,25272,7316.67
2196,25276,7320.00
2197,25280,7323.33
2198,25284,7326.67
2199,25288,7330.00
2200,25292,7333.33
2201,25300,7336.67
2202,25304,7340.00
2203,25312,7343.33
2204,25320,7346.67
2205,25328,7350.00
2206,25332,7353.33
2207,25336,7356.67
2208,25340,7360.00
2209,25332,7363.33
2210,25312,7366.67
2211,25276,7370.00
2212,25244,7373.33
2213,25224,7376.67
2214,25216,7380.00
2215,25224,7383.33
2216,25232,7386.67
2217,25240,7390.00
2218,25252,7393.33
2219,25252,7396.67
2220,25252,7400.00
2221,25252,7403.33
2222,25248,7406.67
2223,25248,7410.00
2224,25244,7413.33
2225,25240,7416.67
2226,25228,7420.00
2227,25224,7423.33
2228,25224,7426.67
2229,25224,7430.00
2230,25224,7433.33
2231,25224,7436.67
2232,25228,7440.00
2233,25232,7443.33
2234,25236,7446.67
2235,25240,7450.00
2236,25244,7453.33
2237,25248,7456.67
2238,25248,7460.00
2239,25248,7463.33
2240,25248,7466.67
2241,25248,7470.00
2242,25248,7473.33
2243,25248,7476.67
2244,25252,7480.00
2245,25252,7483.33
2246,25260,7486.67
2247,25260,7490.00
2248,25264,7493.33
2249,25272,7496.67
2250,25276,7500.00
2251,25276,7503.33
2252,25280,7506.67
2253,25288,7510.00
2254,25292,7513.33
2255,25284,7516.67
2256,25260,7520.00
2257,25220,7523.33
2258,25184,7526.67
2259,25156,7530.00
2260,25136,7533.33
2261,25132,7536.67
2262,25136,7540.00
2263,25140,7543.33
2264,25140,7546.67
2265,25144,7550.00
2266,25136,7553.33
2267,25132,7556.67
2268,25128,7560.00
2269,25124,7563.33
2270,25112,7566.67
2271,25108,7570.00
2272,25100,7573.33
2273,25092,7576.67
2274,25088,7580.00
2275,25088,7583.33
2276,25084,7586.67
2277,25084,7590.00
2278,25084,7593.33
2279,25088,7596.67
2280,25088,7600.00
2281,25092,7603.33
2282,25092,7606.67
2283,25092,7610.00
2284,25092,7613.33
2285,25096,7616.67
2286,25088,7620.00
2287,25092,7623.33
2288,25088,7626.67
2289,25084,7630.00
2290,25092,7633.33
2291,25088,7636.67
2292,25092,7640.00
2293,25092,7643.33
2294,25100,7646.67
2295,25100,7650.00
2296,25104,7653.33
2297,25104,7656.67
2298,25108,7660.00
2299,25116,7663.33
2300,25116,7666.67
2301,25108,7670.00
2302,25072,7673.33
2303,25028,7676.67
2304,24988,7680.00
2305,24956,7683.33
2306,24932,7686.67
2307,24928,7690.00
2308,24924,7693.33
2309,24924,7696.67
2310,24924,7700.00
2311,24916,7703.33
2312,24912,7706.67
2313,24904,7710.00
2314,24904,7713.33
2315,24900,7716.67
2316,24892,7720.00
2317,24884,7723.33
2318,24876,7726.67
2319,24872,7730.00
2320,24864,7733.33
2321,24864,7736.67
2322,24860,7740.00
2323,24860,7743.33
2324,24868,7746.67
2325,24872,7750.00
2326,24872,7753.33
2327,24872,7756.67
2328,24876,7760.00
2329,24876,7763.33
2330,24880,7766.67
2331,24880,7770.00
2332,24880,7773.33
2333,24884,7776.67
2334,24888,7780.00
2335,24888,7783.33
2336,24892,7786.67
2337,24896,7790.00
2338,24900,7793.33
2339,24904,7796.67
2340,24904,7800.00
2341,24908,7803.33
2342,24908,7806.67
2343,24916,7810.00
2344,24920,7813.33
2345,24920,7816.67
2346,24924,7820.00
2347,24908,7823.33
2348,24872,7826.67
2349,24824,7830.00
2350,24784,7833.33
2351,24748,7836.67
2352,24732,7840.00
2353,24724,7843.33
2354,24720,7846.67
2355,24720,7850.00
2356,24716,7853.33
2357,24708,7856.67
2358,24696,7860.00
2359,24688,7863.33
2360,24688,7866.67
2361,24680,7870.00
2362,24676,7873.33
2363,24668,7876.67
2364,24664,7880.00
2365,24656,7883.33
2366,24652,7886.67
2367,24652,7890.00
2368,24652,7893.33
2369,24656,7896.67
2370,24660,7900.00
2371,24668,7903.33
2372,24668,7906.67
2373,24672,7910.00
2374,24676,7913.33
2375,24680,7916.67
2376,24684,7920.00
2377,24684,7923.33
2378,24688,7926.67
2379,24692,7930.00
2380,24696,7933.33
2381,24700,7936.67
2382,24704,7940.00
2383,24712,7943.33
2384,24716,7946.67
2385,24720,7950.00
2386,24724,7953.33
2387,24728,7956.67
2388,24736,7960.00
2389,24744,7963.33
2390,24748,7966.67
2391,24752,7970.00
2392,24732,7973.33
2393,24684,7976.67
2394,24640,7980.00
2395,24596,7983.33
2396,24568,7986.67
2397,24556,7990.00
2398,24544,7993.33
2399,24544,7996.67
2400,24544,8000.00
2401,24536,8003.33
2402,24528,8006.67
2403,24524,8010.00
2404,24516,8013.33
2405,24512,8016.67
2406,24504,8020.00
2407,24492,8023.33
2408,24488,8026.67
2409,24480,8030.00
2410,24472,8033.33
2411,24476,8036.67
2412,24476,8040.00
2413,24476,8043.33
2414,24484,8046.67
2415,24484,8050.00
2416,24488,8053.33
2417,24496,8056.67
2418,24496,8060.00
2419,24500,8063.33
2420,24504,8066.67
2421,24508,8070.00
2422,24512,8073.33
2423,24516,8076.67
2424,24520,8080.00
2425,24524,8083.33
2426,24532,8086.67
2427,24544,8090.00
2428,24544,8093.33
2429,24552,8096.67
2430,24560,8100.00
2431,24564,8103.33
2432,24576,8106.67
2433,24584,8110.00
2434,24596,8113.33
2435,24600,8116.67
2436,24596,8120.00
2437,24572,8123.33
2438,24532,8126.67
2439,24472,8130.00
2440,24420,8133.33
2441,24384,8136.67
2442,24364,8140.00
2443,24356,8143.33
2444,24348,8146.67
2445,24344,8150.00
2446,24336,8153.33
2447,24320,8156.67
2448,24308,8160.00
2449,24308,8163.33
2450,24300,8166.67
2451,24300,8170.00
2452,24292,8173.33
2453,24288,8176.67
2454,24280,8180.00
2455,24276,8183.33
2456,24272,8186.67
2457,24268,8190.00
2458,24268,8193.33
2459,24272,8196.67
2460,24276,8200.00
2461,24284,8203.33
2462,24288,8206.67
2463,24292,8210.00
2464,24296,8213.33
2465,24300,8216.67
2466,24304,8220.00
2467,24312,8223.33
2468,24316,8226.67
2469,24320,8230.00
2470,24328,8233.33
2471,24336,8236.67
2472,24344,8240.00
2473,24352,8243.33
2474,24364,8246.67
2475,24364,8250.00
2476,24376,8253.33
2477,24388,8256.67
2478,24396,8260.00
2479,24404,8263.33
2480,24416,8266.67
2481,24428,8270.00
2482,24436,8273.33
2483,24444,8276.67
2484,24436,8280.00
2485,24400,8283.33
2486,24344,8286.67
2487,24276,8290.00
2488,24220,8293.33
2489,24180,8296.67
2490,24160,8300.00
2491,24148,8303.33
2492,24140,8306.67
2493,24132,8310.00
2494,24116,8313.33
2495,24100,8316.67
2496,24092,8320.00
2497,24088,8323.33
2498,24084,8326.67
2499,24084,8330.00
2500,24080,8333.33
2501,24072,8336.67
2502,24068,8340.00
2503,24064,8343.33
2504,24060,8346.67
2505,24060,8350.00
2506,24068,8353.33
2507,24072,8356.67
2508,24080,8360.00
2509,24092,8363.33
2510,24104,8366.67
2511,24112,8370.00
2512,24120,8373.33
2513,24132,8376.67
2514,24144,8380.00
2515,24148,8383.33
2516,24160,8386.67
2517,24168,8390.00
2518,24172,8393.33
2519,24184,8396.67
2520,24196,8400.00
2521,24204,8403.33
2522,24212,8406.67
2523,24224,8410.00
2524,24236,8413.33
2525,24248,8416.67
2526,24260,8420.00
2527,24268,8423.33
2528,24284,8426.67
2529,24296,8430.00
2530,24308,8433.33
2531,24320,8436.67
2532,24332,8440.00
2533,24344,8443.33
2534,24348,8446.67
2535,24328,8450.00
2536,24288,8453.33
2537,24224,8456.67
2538,24152,8460.00
2539,24092,8463.33
2540,24052,8466.67
2541,24028,8470.00
2542,24024,8473.33
2543,24020,8476.67
2544,24008,8480.00
2545,23996,8483.33
2546,23988,8486.67
2547,23980,8490.00
2548,23976,8493.33
2549,23972,8496.67
2550,23972,8500.00
2551,23968,8503.33
2552,23964,8506.67
2553,23960,8510.00
2554,23956,8513.33
2555,23960,8516.67
2556,23960,8520.00
2557,23972,8523.33
2558,23984,8526.67
2559,23996,8530.00
2560,24008,8533.33
2561,24016,8536.67
2562,24032,8540.00
2563,24044,8543.33
2564,24056,8546.67
2565,24060,8550.00
2566,24068,8553.33
2567,24080,8556.67
2568,24092,8560.00
2569,24104,8563.33
2570,24116,8566.67
2571,24128,8570.00
2572,24144,8573.33
2573,24156,8576.67
2574,24168,8580.00
2575,24184,8583.33
2576,24200,8586.67
2577,24212,8590.00
2578,24224,8593.33
2579,24240,8596.67
2580,24248,8600.00
2581,24260,8603.33
2582,24276,8606.67
2583,24284,8610.00
2584,24300,8613.33
2585,24300,8616.67
2586,24276,8620.00
2587,24224,8623.33
2588,24156,8626.67
2589,24084,8630.00
2590,24028,8633.33
2591,23996,8636.67
2592,23980,8640.00
2593,23972,8643.33
2594,23968,8646.67
2595,23964,8650.00
2596,23960,8653.33
2597,23948,8656.67
2598,23948,8660.00
2599,23944,8663.33
2600,23940,8666.67
2601,23936,8670.00
2602,23932,8673.33
2603,23928,8676.67
2604,23924,8680.00
2605,23928,8683.33
2606,23932,8686.67
2607,23936,8690.00
2608,23948,8693.33
2609,23960,8696.67
2610,23972,8700.00
2611,23984,8703.33
2612,23996,8706.67
2613,24008,8710.00
2614,24024,8713.33
2615,24036,8716.67
2616,24048,8720.00
2617,24060,8723.33
2618,24068,8726.67
2619,24080,8730.00
2620,24100,8733.33
2621,24108,8736.67
2622,24120,8740.00
2623,24136,8743.33
2624,24148,8746.67
2625,24164,8750.00
2626,24176,8753.33
2627,24188,8756.67
2628,24208,8760.00
2629,24220,8763.33
2630,24232,8766.67
2631,24248,8770.00
2632,24260,8773.33
2633,24248,8776.67
2634,24200,8780.00
2635,24136,8783.33
2636,24060,8786.67
2637,23984,8790.00
2638,23940,8793.33
2639,23916,8796.67
2640,23908,8800.00
2641,23908,8803.33
2642,23904,8806.67
2643,23896,8810.00
2644,23888,8813.33
2645,23888,8816.67
2646,23888,8820.00
2647,23880,8823.33
2648,23880,8826.67
2649,23872,8830.00
2650,23872,8833.33
2651,23868,8836.67
2652,23864,8840.00
2653,23864,8843.33
2654,23872,8846.67
2655,23880,8850.00
2656,23900,8853.33
2657,23908,8856.67
2658,23920,8860.00
2659,23936,8863.33
2660,23952,8866.67
2661,23968,8870.00
2662,23980,8873.33
2663,23992,8876.67
2664,24004,8880.00
2665,24016,8883.33
2666,24032,8886.67
2667,24044,8890.00
2668,24056,8893.33
2669,24072,8896.67
2670,24088,8900.00
2671,24100,8903.33
2672,24120,8906.67
2673,24136,8910.00
2674,24148,8913.33
2675,24164,8916.67
2676,24184,8920.00
2677,24200,8923.33
2678,24216,8926.67
2679,24232,8930.00
2680,24224,8933.33
2681,24176,8936.67
2682,24104,8940.00
2683,24016,8943.33
2684,23932,8946.67
2685,23876,8950.00
2686,23844,8953.33
2687,23824,8956.67
2688,23820,8960.00
2689,23820,8963.33
2690,23808,8966.67
2691,23800,8970.00
2692,23796,8973.33
2693,23796,8976.67
2694,23796,8980.00
2695,23792,8983.33
2696,23788,8986.67
2697,23784,8990.00
2698,23780,8993.33
2699,23776,8996.67
2700,23780,9000.00
2701,23784,9003.33
2702,23792,9006.67
2703,23804,9010.00
2704,23820,9013.33
2705,23836,9016.67
2706,23856,9020.00
2707,23872,9023.33
2708,23884,9026.67
2709,23900,9030.00
2710,23912,9033.33
2711,23928,9036.67
2712,23940,9040.00
2713,23952,9043.33
2714,23964,9046.67
2715,23980,9050.00
2716,23992,9053.33
2717,24008,9056.67
2718,24020,9060.00
2719,24036,9063.33
2720,24056,9066.67
2721,24076,9070.00
2722,24088,9073.33
2723,24108,9076.67
2724,24124,9080.00
2725,24140,9083.33
2726,24160,9086.67
2727,24172,9090.00
2728,24164,9093.33
2729,24116,9096.67
2730,24040,9100.00
2731,23944,9103.33
2732,23856,9106.67
2733,23788,9110.00
2734,23748,9113.33
2735,23732,9116.67
2736,23728,9120.00
2737,23728,9123.33
2738,23720,9126.67
2739,23708,9130.00
2740,23704,9133.33
2741,23700,9136.67
2742,23700,9140.00
2743,23696,9143.33
2744,23692,9146.67
2745,23692,9150.00
2746,23684,9153.33
2747,23684,9156.67
2748,23688,9160.00
2749,23696,9163.33
2750,23712,9166.67
2751,23724,9170.00
2752,23744,9173.33
2753,23760,9176.67
2754,23780,9180.00
2755,23796,9183.33
2756,23812,9186.67
2757,23832,9190.00
2758,23844,9193.33
2759,23856,9196.67
2760,23868,9200.00
2761,23880,9203.33
2762,23892,9206.67
2763,23908,9210.00
2764,23924,9213.33
2765,23936,9216.67
2766,23956,9220.00
2767,23968,9223.33
2768,23988,9226.67
2769,24008,9230.00
2770,24024,9233.33
2771,24040,9236.67
2772,24056,9240.00
2773,24072,9243.33
2774,24084,9246.67
2775,24080,9250.00
2776,24040,9253.33
2777,23960,9256.67
2778,23860,9260.00
2779,23760,9263.33
2780,23680,9266.67
2781,23632,9270.00
2782,23612,9273.33
2783,23612,9276.67
2784,23612,9280.00
2785,23608,9283.33
2786,23604,9286.67
2787,23596,9290.00
2788,23596,9293.33
2789,23600,9296.67
2790,23604,9300.00
2791,23596,9303.33
2792,23592,9306.67
2793,23588,9310.00
2794,23588,9313.33
2795,23588,9316.67
2796,23600,9320.00
2797,23616,9323.33
2798,23632,9326.67
2799,23656,9330.00
2800,23676,9333.33
2801,23692,9336.67
2802,23712,9340.00
2803,23732,9343.33
2804,23748,9346.67
2805,23760,9350.00
2806,23776,9353.33
2807,23788,9356.67
2808,23804,9360.00
2809,23820,9363.33
2810,23832,9366.67
2811,23848,9370.00
2812,23864,9373.33
2813,23880,9376.67
2814,23900,9380.00
2815,23916,9383.33
2816,23932,9386.67
2817,23948,9390.00
2818,23964,9393.33
2819,23952,9396.67
2820,23900,9400.00
2821,23812,9403.33
2822,23704,9406.67
2823,23600,9410.00
2824,23532,9413.33
2825,23492,9416.67
2826,23480,9420.00
2827,23480,9423.33
2828,23484,9426.67
2829,23484,9430.00
2830,23484,9433.33
2831,23484,9436.67
2832,23488,9440.00
2833,23496,9443.33
2834,23496,9446.67
2835,23496,9450.00
2836,23492,9453.33
2837,23488,9456.67
2838,23496,9460.00
2839,23496,9463.33
2840,23508,9466.67
2841,23528,9470.00
2842,23552,9473.33
2843,23576,9476.67
2844,23600,9480.00
2845,23624,9483.33
2846,23644,9486.67
2847,23660,9490.00
2848,23684,9493.33
2849,23696,9496.67
2850,23712,9500.00
2851,23732,9503.33
2852,23744,9506.67
2853,23760,9510.00
2854,23776,9513.33
2855,23792,9516.67
2856,23816,9520.00
2857,23832,9523.33
2858,23852,9526.67
2859,23868,9530.00
2860,23888,9533.33
2861,23908,9536.67
2862,23924,9540.00
2863,23916,9543.33
2864,23856,9546.67
2865,23760,9550.00
2866,23636,9553.33
2867,23524,9556.67
2868,23440,9560.00
2869,23396,9563.33
2870,23384,9566.67
2871,23380,9570.00
2872,23384,9573.33
2873,23380,9576.67
2874,23372,9580.00
2875,23372,9583.33
2876,23376,9586.67
2877,23380,9590.00
2878,23388,9593.33
2879,23396,9596.67
2880,23396,9600.00
2881,23396,9603.33
2882,23396,9606.67
2883,23408,9610.00
2884,23420,9613.33
2885,23436,9616.67
2886,23456,9620.00
2887,23480,9623.33
2888,23508,9626.67
2889,23528,9630.00
2890,23548,9633.33
2891,23572,9636.67
2892,23588,9640.00
2893,23608,9643.33
2894,23624,9646.67
2895,23640,9650.00
2896,23648,9653.33
2897,23668,9656.67
2898,23684,9660.00
2899,23700,9663.33
2900,23716,9666.67
2901,23736,9670.00
2902,23756,9673.33
2903,23772,9676.67
2904,23792,9680.00
2905,23808,9683.33
2906,23828,9686.67
2907,23840,9690.00
2908,23828,9693.33
2909,23768,9696.67
2910,23668,9700.00
2911,23544,9703.33
2912,23432,9706.67
2913,23344,9710.00
2914,23292,9713.33
2915,23272,9716.67
2916,23268,9720.00
2917,23276,9723.33
2918,23276,9726.67
2919,23276,9730.00
2920,23280,9733.33
2921,23288,9736.67
2922,23308,9740.00
2923,23320,9743.33
2924,23328,9746.67
2925,23332,9750.00
2926,23336,9753.33
2927,23344,9756.67
2928,23348,9760.00
2929,23360,9763.33
2930,23376,9766.67
2931,23404,9770.00
2932,23432,9773.33
2933,23464,9776.67
2934,23492,9780.00
2935,23524,9783.33
2936,23552,9786.67
2937,23572,9790.00
2938,23600,9793.33
2939,23620,9796.67
2940,23636,9800.00
2941,23660,9803.33
2942,23672,9806.67
2943,23684,9810.00
2944,23708,9813.33
2945,23728,9816.67
2946,23748,9820.00
2947,23768,9823.33
2948,23792,9826.67
2949,23816,9830.00
2950,23840,9833.33
2951,23860,9836.67
2952,23880,9840.00
2953,23900,9843.33
2954,23892,9846.67
2955,23828,9850.00
2956,23728,9853.33
2957,23600,9856.67
2958,23480,9860.00
2959,23380,9863.33
2960,23320,9866.67
2961,23296,9870.00
2962,23300,9873.33
2963,23308,9876.67
2964,23320,9880.00
2965,23328,9883.33
2966,23340,9886.67
2967,23352,9890.00
2968,23368,9893.33
2969,23376,9896.67
2970,23380,9900.00
2971,23380,9903.33
2972,23380,9906.67
2973,23380,9910.00
2974,23388,9913.33
2975,23404,9916.67
2976,23420,9920.00
2977,23448,9923.33
2978,23476,9926.67
2979,23508,9930.00
2980,23532,9933.33
2981,23560,9936.67
2982,23584,9940.00
2983,23600,9943.33
2984,23620,9946.67
2985,23636,9950.00
2986,23648,9953.33
2987,23668,9956.67
2988,23684,9960.00
2989,23700,9963.33
2990,23716,9966.67
2991,23732,9970.00
2992,23748,9973.33
2993,23764,9976.67
2994,23788,9980.00
2995,23812,9983.33
2996,23832,9986.67
2997,23840,9990.00
2998,23804,9993.33
2999,23720,9996.67
3000,23596,10000.00
3001,23464,10003.33
3002,23352,10006.67
3003,23284,10010.00
3004,23248,10013.33
3005,23240,10016.67
3006,23244,10020.00
3007,23252,10023.33
3008,23264,10026.67
3009,23268,10030.00
3010,23284,10033.33
3011,23296,10036.67
3012,23308,10040.00
3013,23316,10043.33
3014,23316,10046.67
3015,23312,10050.00
3016,23312,10053.33
3017,23312,10056.67
3018,23328,10060.00
3019,23344,10063.33
3020,23364,10066.67
3021,23388,10070.00
3022,23412,10073.33
3023,23436,10076.67
3024,23460,10080.00
3025,23484,10083.33
3026,23504,10086.67
3027,23528,10090.00
3028,23540,10093.33
3029,23556,10096.67
3030,23576,10100.00
3031,23584,10103.33
3032,23596,10106.67
3033,23616,10110.00
3034,23632,10113.33
3035,23648,10116.67
3036,23664,10120.00
3037,23680,10123.33
3038,23696,10126.67
3039,23716,10130.00
3040,23736,10133.33
3041,23752,10136.67
3042,23768,10140.00
3043,23768,10143.33
3044,23720,10146.67
3045,23616,10150.00
3046,23480,10153.33
3047,23344,10156.67
3048,23232,10160.00
3049,23168,10163.33
3050,23140,10166.67
3051,23144,10170.00
3052,23156,10173.33
3053,23172,10176.67
3054,23180,10180.00
3055,23196,10183.33
3056,23208,10186.67
3057,23220,10190.00
3058,23232,10193.33
3059,23236,10196.67
3060,23240,10200.00
3061,23236,10203.33
3062,23232,10206.67
3063,23228,10210.00
3064,23236,10213.33
3065,23256,10216.67
3066,23276,10220.00
3067,23300,10223.33
3068,23328,10226.67
3069,23352,10230.00
3070,23380,10233.33
3071,23400,10236.67
3072,23420,10240.00
3073,23440,10243.33
3074,23456,10246.67
3075,23468,10250.00
3076,23484,10253.33
3077,23500,10256.67
3078,23512,10260.00
3079,23528,10263.33
3080,23548,10266.67
3081,23568,10270.00
3082,23588,10273.33
3083,23612,10276.67
3084,23632,10280.00
3085,23652,10283.33
3086,23676,10286.67
3087,23700,10290.00
3088,23720,10293.33
3089,23728,10296.67
3090,23680,10300.00
3091,23572,10303.33
3092,23436,10306.67
3093,23296,10310.00
3094,23184,10313.33
3095,23116,10316.67
3096,23088,10320.00
3097,23088,10323.33
3098,23104,10326.67
3099,23116,10330.00
3100,23132,10333.33
3101,23144,10336.67
3102,23160,10340.00
3103,23176,10343.33
3104,23184,10346.67
3105,23192,10350.00
3106,23184,10353.33
3107,23184,10356.67
3108,23184,10360.00
3109,23188,10363.33
3110,23200,10366.67
3111,23228,10370.00
3112,23248,10373.33
3113,23276,10376.67
3114,23308,10380.00
3115,23340,10383.33
3116,23368,10386.67
3117,23392,10390.00
3118,23420,10393.33
3119,23440,10396.67
3120,23460,10400.00
3121,23480,10403.33
3122,23492,10406.67
3123,23508,10410.00
3124,23524,10413.33
3125,23544,10416.67
3126,23564,10420.00
3127,23580,10423.33
3128,23600,10426.67
3129,23624,10430.00
3130,23644,10433.33
3131,23660,10436.67
3132,23680,10440.00
3133,23700,10443.33
3134,23704,10446.67
3135,23644,10450.00
3136,23536,10453.33
3137,23400,10456.67
3138,23268,10460.00
3139,23168,10463.33
3140,23104,10466.67
3141,23088,10470.00
3142,23092,10473.33
3143,23112,10476.67
3144,23140,10480.00
3145,23164,10483.33
3146,23184,10486.67
3147,23212,10490.00
3148,23232,10493.33
3149,23240,10496.67
3150,23244,10500.00
3151,23240,10503.33
3152,23232,10506.67
3153,23228,10510.00
3154,23240,10513.33
3155,23256,10516.67
3156,23276,10520.00
3157,23304,10523.33
3158,23328,10526.67
3159,23364,10530.00
3160,23392,10533.33
3161,23416,10536.67
3162,23448,10540.00
3163,23468,10543.33
3164,23492,10546.67
3165,23516,10550.00
3166,23532,10553.33
3167,23552,10556.67
3168,23572,10560.00
3169,23592,10563.33
3170,23608,10566.67
3171,23628,10570.00
3172,23648,10573.33
3173,23668,10576.67
3174,23688,10580.00
3175,23712,10583.33
3176,23736,10586.67
3177,23760,10590.00
3178,23752,10593.33
3179,23684,10596.67
3180,23572,10600.00
3181,23440,10603.33
3182,23324,10606.67
3183,23232,10610.00
3184,23180,10613.33
3185,23160,10616.67
3186,23168,10620.00
3187,23188,10623.33
3188,23216,10626.67
3189,23240,10630.00
3190,23268,10633.33
3191,23292,10636.67
3192,23304,10640.00
3193,23304,10643.33
3194,23296,10646.67
3195,23284,10650.00
3196,23276,10653.33
3197,23272,10656.67
3198,23280,10660.00
3199,23292,10663.33
3200,23316,10666.67
3201,23340,10670.00
3202,23372,10673.33
3203,23400,10676.67
3204,23432,10680.00
3205,23456,10683.33
3206,23484,10686.67
3207,23508,10690.00
3208,23528,10693.33
3209,23544,10696.67
3210,23556,10700.00
3211,23576,10703.33
3212,23592,10706.67
3213,23608,10710.00
3214,23624,10713.33
3215,23640,10716.67
3216,23664,10720.00
3217,23684,10723.33
3218,23688,10726.67
3219,23644,10730.00
3220,23548,10733.33
3221,23424,10736.67
3222,23296,10740.00
3223,23196,10743.33
3224,23128,10746.67
3225,23100,10750.00
3226,23104,10753.33
3227,23116,10756.67
3228,23140,10760.00
3229,23164,10763.33
3230,23188,10766.67
3231,23216,10770.00
3232,23236,10773.33
3233,23248,10776.67
3234,23248,10780.00
3235,23244,10783.33
3236,23240,10786.67
3237,23240,10790.00
3238,23248,10793.33
3239,23268,10796.67
3240,23288,10800.00
3241,23324,10803.33
3242,23348,10806.67
3243,23384,10810.00
3244,23412,10813.33
3245,23436,10816.67
3246,23464,10820.00
3247,23480,10823.33
3248,23504,10826.67
3249,23520,10830.00
3250,23536,10833.33
3251,23556,10836.67
3252,23576,10840.00
3253,23596,10843.33
3254,23616,10846.67
3255,23636,10850.00
3256,23632,10853.33
3257,23576,10856.67
3258,23484,10860.00
3259,23376,10863.33
3260,23276,10866.67
3261,23204,10870.00
3262,23160,10873.33
3263,23152,10876.67
3264,23156,10880.00
3265,23172,10883.33
3266,23192,10886.67
3267,23208,10890.00
3268,23232,10893.33
3269,23256,10896.67
3270,23272,10900.00
3271,23276,10903.33
3272,23280,10906.67
3273,23276,10910.00
3274,23276,10913.33
3275,23288,10916.67
3276,23296,10920.00
3277,23320,10923.33
3278,23344,10926.67
3279,23372,10930.00
3280,23400,10933.33
3281,23424,10936.67
3282,23452,10940.00
3283,23476,10943.33
3284,23500,10946.67
3285,23524,10950.00
3286,23544,10953.33
3287,23564,10956.67
3288,23580,10960.00
3289,23600,10963.33
3290,23616,10966.67
3291,23640,10970.00
3292,23660,10973.33
3293,23676,10976.67
3294,23656,10980.00
3295,23600,10983.33
3296,23512,10986.67
3297,23420,10990.00
3298,23344,10993.33
3299,23296,10996.67
3300,23272,11000.00
3301,23268,11003.33
3302,23280,11006.67
3303,23296,11010.00
3304,23316,11013.33
3305,23332,11016.67
3306,23348,11020.00
3307,23364,11023.33
3308,23364,11026.67
3309,23368,11030.00
3310,23368,11033.33
3311,23364,11036.67
3312,23364,11040.00
3313,23372,11043.33
3314,23384,11046.67
3315,23400,11050.00
3316,23428,11053.33
3317,23452,11056.67
3318,23476,11060.00
3319,23500,11063.33
3320,23524,11066.67
3321,23544,11070.00
3322,23564,11073.33
3323,23584,11076.67
3324,23604,11080.00
3325,23620,11083.33
3326,23636,11086.67
3327,23652,11090.00
3328,23672,11093.33
3329,23688,11096.67
3330,23708,11100.00
3331,23728,11103.33
3332,23740,11106.67
3333,23720,11110.00
3334,23660,11113.33
3335,23584,11116.67
3336,23500,11120.00
3337,23436,11123.33
3338,23400,11126.67
3339,23384,11130.00
3340,23392,11133.33
3341,23404,11136.67
3342,23420,11140.00
3343,23432,11143.33
3344,23448,11146.67
3345,23460,11150.00
3346,23472,11153.33
3347,23472,11156.67
3348,23472,11160.00
3349,23464,11163.33
3350,23460,11166.67
3351,23464,11170.00
3352,23468,11173.33
3353,23484,11176.67
3354,23504,11180.00
3355,23524,11183.33
3356,23544,11186.67
3357,23560,11190.00
3358,23580,11193.33
3359,23600,11196.67
3360,23620,11200.00
3361,23636,11203.33
3362,23652,11206.67
3363,23664,11210.00
3364,23680,11213.33
3365,23692,11216.67
3366,23708,11220.00
3367,23720,11223.33
3368,23732,11226.67
3369,23748,11230.00
3370,23768,11233.33
3371,23784,11236.67
3372,23772,11240.00
3373,23720,11243.33
3374,23652,11246.67
3375,23580,11250.00
3376,23520,11253.33
3377,23476,11256.67
3378,23468,11260.00
3379,23468,11263.33
3380,23488,11266.67
3381,23504,11270.00
3382,23520,11273.33
3383,23536,11276.67
3384,23548,11280.00
3385,23556,11283.33
3386,23560,11286.67
3387,23560,11290.00
3388,23556,11293.33
3389,23556,11296.67
3390,23560,11300.00
3391,23564,11303.33
3392,23580,11306.67
3393,23600,11310.00
3394,23620,11313.33
3395,23640,11316.67
3396,23660,11320.00
3397,23684,11323.33
3398,23704,11326.67
3399,23720,11330.00
3400,23740,11333.33
3401,23760,11336.67
3402,23776,11340.00
3403,23792,11343.33
3404,23808,11346.67
3405,23820,11350.00
3406,23836,11353.33
3407,23852,11356.67
3408,23864,11360.00
3409,23880,11363.33
3410,23900,11366.67
3411,23912,11370.00
3412,23912,11373.33
3413,23868,11376.67
3414,23804,11380.00
3415,23720,11383.33
3416,23644,11386.67
3417,23592,11390.00
3418,23568,11393.33
3419,23560,11396.67
3420,23568,11400.00
3421,23572,11403.33
3422,23584,11406.67
3423,23592,11410.00
3424,23604,11413.33
3425,23612,11416.67
3426,23616,11420.00
3427,23612,11423.33
3428,23608,11426.67
3429,23604,11430.00
3430,23604,11433.33
3431,23600,11436.67
3432,23608,11440.00
3433,23620,11443.33
3434,23636,11446.67
3435,23656,11450.00
3436,23676,11453.33
3437,23692,11456.67
3438,23708,11460.00
3439,23728,11463.33
3440,23740,11466.67
3441,23756,11470.00
3442,23768,11473.33
3443,23780,11476.67
3444,23792,11480.00
3445,23808,11483.33
3446,23820,11486.67
3447,23836,11490.00
3448,23852,11493.33
3449,23864,11496.67
3450,23880,11500.00
3451,23896,11503.33
3452,23920,11506.67
3453,23932,11510.00
3454,23936,11513.33
3455,23900,11516.67
3456,23828,11520.00
3457,23744,11523.33
3458,23660,11526.67
3459,23600,11530.00
3460,23564,11533.33
3461,23556,11536.67
3462,23560,11540.00
3463,23568,11543.33
3464,23576,11546.67
3465,23584,11550.00
3466,23592,11553.33
3467,23600,11556.67
3468,23604,11560.00
3469,23600,11563.33
3470,23596,11566.67
3471,23588,11570.00
3472,23588,11573.33
3473,23588,11576.67
3474,23592,11580.00
3475,23604,11583.33
3476,23616,11586.67
3477,23632,11590.00
3478,23652,11593.33
3479,23668,11596.67
3480,23688,11600.00
3481,23704,11603.33
3482,23720,11606.67
3483,23736,11610.00
3484,23752,11613.33
3485,23764,11616.67
3486,23776,11620.00
3487,23792,11623.33
3488,23808,11626.67
3489,23820,11630.00
3490,23832,11633.33
3491,23844,11636.67
3492,23860,11640.00
3493,23880,11643.33
3494,23896,11646.67
3495,23916,11650.00
3496,23932,11653.33
3497,23920,11656.67
3498,23868,11660.00
3499,23788,11663.33
3500,23692,11666.67
3501,23612,11670.00
3502,23560,11673.33
3503,23528,11676.67
3504,23524,11680.00
3505,23532,11683.33
3506,23544,11686.67
3507,23556,11690.00
3508,23568,11693.33
3509,23580,11696.67
3510,23584,11700.00
3511,23584,11703.33
3512,23584,11706.67
3513,23576,11710.00
3514,23568,11713.33
3515,23564,11716.67
3516,23564,11720.00
3517,23572,11723.33
3518,23588,11726.67
3519,23604,11730.00
3520,23620,11733.33
3521,23640,11736.67
3522,23656,11740.00
3523,23680,11743.33
3524,23704,11746.67
3525,23716,11750.00
3526,23732,11753.33
3527,23748,11756.67
3528,23764,11760.00
3529,23776,11763.33
3530,23788,11766.67
3531,23804,11770.00
3532,23820,11773.33
3533,23832,11776.67
3534,23852,11780.00
3535,23872,11783.33
3536,23888,11786.67
3537,23884,11790.00
3538,23840,11793.33
3539,23764,11796.67
3540,23672,11800.00
3541,23584,11803.33
3542,23508,11806.67
3543,23468,11810.00
3544,23456,11813.33
3545,23456,11816.67
3546,23468,11820.00
3547,23480,11823.33
3548,23496,11826.67
3549,23512,11830.00
3550,23520,11833.33
3551,23516,11836.67
3552,23512,11840.00
3553,23504,11843.33
3554,23488,11846.67
3555,23476,11850.00
3556,23476,11853.33
3557,23480,11856.67
3558,23496,11860.00
3559,23512,11863.33
3560,23536,11866.67
3561,23560,11870.00
3562,23580,11873.33
3563,23600,11876.67
3564,23624,11880.00
3565,23636,11883.33
3566,23656,11886.67
3567,23668,11890.00
3568,23680,11893.33
3569,23696,11896.67
3570,23704,11900.00
3571,23720,11903.33
3572,23736,11906.67
3573,23756,11910.00
3574,23768,11913.33
3575,23748,11916.67
3576,23688,11920.00
3577,23596,11923.33
3578,23492,11926.67
3579,23404,11930.00
3580,23344,11933.33
3581,23312,11936.67
3582,23300,11940.00
3583,23308,11943.33
3584,23316,11946.67
3585,23328,11950.00
3586,23344,11953.33
3587,23356,11956.67
3588,23368,11960.00
3589,23368,11963.33
3590,23360,11966.67
3591,23352,11970.00
3592,23344,11973.33
3593,23340,11976.67
3594,23344,11980.00
3595,23356,11983.33
3596,23372,11986.67
3597,23392,11990.00
3598,23412,11993.33
3599,23432,11996.67
3600,23456,12000.00
3601,23476,12003.33
3602,23496,12006.67
3603,23512,12010.00
3604,23532,12013.33
3605,23544,12016.67
3606,23560,12020.00
3607,23572,12023.33
3608,23588,12026.67
3609,23608,12030.00
3610,23624,12033.33
3611,23644,12036.67
3612,23660,12040.00
3613,23664,12043.33
3614,23632,12046.67
3615,23552,12050.00
3616,23440,12053.33
3617,23336,12056.67
3618,23248,12060.00
3619,23196,12063.33
3620,23180,12066.67
3621,23184,12070.00
3622,23196,12073.33
3623,23204,12076.67
3624,23220,12080.00
3625,23232,12083.33
3626,23248,12086.67
3627,23260,12090.00
3628,23268,12093.33
3629,23268,12096.67
3630,23268,12100.00
3631,23268,12103.33
3632,23276,12106.67
3633,23288,12110.00
3634,23304,12113.33
3635,23328,12116.67
3636,23360,12120.00
3637,23384,12123.33
3638,23416,12126.67
3639,23444,12130.00
3640,23468,12133.33
3641,23492,12136.67
3642,23512,12140.00
3643,23536,12143.33
3644,23556,12146.67
3645,23576,12150.00
3646,23592,12153.33
3647,23616,12156.67
3648,23632,12160.00
3649,23656,12163.33
3650,23676,12166.67
3651,23700,12170.00
3652,23720,12173.33
3653,23744,12176.67
3654,23768,12180.00
3655,23768,12183.33
3656,23728,12186.67
3657,23652,12190.00
3658,23564,12193.33
3659,23488,12196.67
3660,23432,12200.00
3661,23408,12203.33
3662,23404,12206.67
3663,23408,12210.00
3664,23412,12213.33
3665,23420,12216.67
3666,23424,12220.00
3667,23436,12223.33
3668,23448,12226.67
3669,23456,12230.00
3670,23456,12233.33
3671,23456,12236.67
3672,23456,12240.00
3673,23464,12243.33
3674,23472,12246.67
3675,23484,12250.00
3676,23500,12253.33
3677,23516,12256.67
3678,23540,12260.00
3679,23560,12263.33
3680,23584,12266.67
3681,23604,12270.00
3682,23624,12273.33
3683,23636,12276.67
3684,23660,12280.00
3685,23676,12283.33
3686,23692,12286.67
3687,23708,12290.00
3688,23724,12293.33
3689,23744,12296.67
3690,23764,12300.00
3691,23780,12303.33
3692,23800,12306.67
3693,23816,12310.00
3694,23836,12313.33
3695,23856,12316.67
3696,23876,12320.00
3697,23896,12323.33
3698,23912,12326.67
3699,23932,12330.00
3700,23944,12333.33
3701,23932,12336.67
3702,23888,12340.00
3703,23820,12343.33
3704,23752,12346.67
3705,23700,12350.00
3706,23668,12353.33
3707,23656,12356.67
3708,23664,12360.00
3709,23668,12363.33
3710,23676,12366.67
3711,23680,12370.00
3712,23688,12373.33
3713,23700,12376.67
3714,23704,12380.00
3715,23700,12383.33
3716,23704,12386.67
3717,23700,12390.00
3718,23700,12393.33
3719,23704,12396.67
3720,23708,12400.00
3721,23716,12403.33
3722,23724,12406.67
3723,23744,12410.00
3724,23760,12413.33
3725,23776,12416.67
3726,23788,12420.00
3727,23808,12423.33
3728,23816,12426.67
3729,23832,12430.00
3730,23848,12433.33
3731,23856,12436.67
3732,23868,12440.00
3733,23880,12443.33
3734,23896,12446.67
3735,23904,12450.00
3736,23916,12453.33
3737,23932,12456.67
3738,23948,12460.00
3739,23964,12463.33
3740,23984,12466.67
3741,24000,12470.00
3742,24016,12473.33
3743,24032,12476.67
3744,24044,12480.00
3745,24064,12483.33
3746,24080,12486.67
3747,24104,12490.00
3748,24104,12493.33
3749,24072,12496.67
3750,24028,12500.00
3751,23976,12503.33
3752,23932,12506.67
3753,23908,12510.00
3754,23900,12513.33
3755,23908,12516.67
3756,23916,12520.00
3757,23928,12523.33
3758,23932,12526.67
3759,23936,12530.00
3760,23948,12533.33
3761,23952,12536.67
3762,23952,12540.00
3763,23952,12543.33
3764,23948,12546.67
3765,23948,12550.00
3766,23948,12553.33
3767,23952,12556.67
3768,23956,12560.00
3769,23968,12563.33
3770,23980,12566.67
3771,23992,12570.00
3772,24008,12573.33
3773,24020,12576.67
3774,24028,12580.00
3775,24040,12583.33
3776,24048,12586.67
3777,24052,12590.00
3778,24052,12593.33
3779,24056,12596.67
3780,24064,12600.00
3781,24072,12603.33
3782,24084,12606.67
3783,24092,12610.00
3784,24104,12613.33
3785,24120,12616.67
3786,24128,12620.00
3787,24144,12623.33
3788,24156,12626.67
3789,24172,12630.00
3790,24164,12633.33
3791,24124,12636.67
3792,24076,12640.00
3793,24020,12643.33
3794,23980,12646.67
3795,23952,12650.00
3796,23944,12653.33
3797,23948,12656.67
3798,23956,12660.00
3799,23964,12663.33
3800,23972,12666.67
3801,23980,12670.00
3802,23988,12673.33
3803,23996,12676.67
3804,23996,12680.00
3805,23992,12683.33
3806,23988,12686.67
3807,23988,12690.00
3808,23988,12693.33
3809,23996,12696.67
3810,24004,12700.00
3811,24016,12703.33
3812,24032,12706.67
3813,24048,12710.00
3814,24060,12713.33
3815,24076,12716.67
3816,24092,12720.00
3817,24100,12723.33
3818,24112,12726.67
3819,24128,12730.00
3820,24132,12733.33
3821,24140,12736.67
3822,24152,12740.00
3823,24160,12743.33
3824,24176,12746.67
3825,24192,12750.00
3826,24204,12753.33
3827,24192,12756.67
3828,24160,12760.00
3829,24112,12763.33
3830,24064,12766.67
3831,24020,12770.00
3832,23988,12773.33
3833,23976,12776.67
3834,23972,12780.00
3835,23972,12783.33
3836,23972,12786.67
3837,23972,12790.00
3838,23976,12793.33
3839,23980,12796.67
3840,23972,12800.00
3841,23976,12803.33
3842,23976,12806.67
3843,23972,12810.00
3844,23968,12813.33
3845,23968,12816.67
3846,23968,12820.00
3847,23968,12823.33
3848,23980,12826.67
3849,23992,12830.00
3850,24008,12833.33
3851,24020,12836.67
3852,24036,12840.00
3853,24048,12843.33
3854,24064,12846.67
3855,24076,12850.00
3856,24088,12853.33
3857,24104,12856.67
3858,24116,12860.00
3859,24128,12863.33
3860,24136,12866.67
3861,24152,12870.00
3862,24164,12873.33
3863,24172,12876.67
3864,24152,12880.00
3865,24112,12883.33
3866,24056,12886.67
3867,24000,12890.00
3868,23952,12893.33
3869,23924,12896.67
3870,23916,12900.00
3871,23912,12903.33
3872,23916,12906.67
3873,23912,12910.00
3874,23912,12913.33
3875,23912,12916.67
3876,23916,12920.00
3877,23916,12923.33
3878,23916,12926.67
3879,23912,12930.00
3880,23908,12933.33
3881,23904,12936.67
3882,23904,12940.00
3883,23904,12943.33
3884,23908,12946.67
3885,23920,12950.00
3886,23936,12953.33
3887,23952,12956.67
3888,23964,12960.00
3889,23980,12963.33
3890,23988,12966.67
3891,24004,12970.00
3892,24016,12973.33
3893,24024,12976.67
3894,24032,12980.00
3895,24044,12983.33
3896,24060,12986.67
3897,24064,12990.00
3898,24080,12993.33
3899,24088,12996.67
3900,24076,13000.00
3901,24032,13003.33
3902,23972,13006.67
3903,23904,13010.00
3904,23848,13013.33
3905,23812,13016.67
3906,23792,13020.00
3907,23792,13023.33
3908,23792,13026.67
3909,23792,13030.00
3910,23796,13033.33
3911,23792,13036.67
3912,23800,13040.00
3913,23804,13043.33
3914,23808,13046.67
3915,23812,13050.00
3916,23812,13053.33
3917,23812,13056.67
3918,23808,13060.00
3919,23816,13063.33
3920,23824,13066.67
3921,23836,13070.00
3922,23852,13073.33
3923,23868,13076.67
3924,23884,13080.00
3925,23904,13083.33
3926,23920,13086.67
3927,23936,13090.00
3928,23956,13093.33
3929,23972,13096.67
3930,23988,13100.00
3931,24000,13103.33
3932,24024,13106.67
3933,24036,13110.00
3934,24028,13113.33
3935,23992,13116.67
3936,23936,13120.00
3937,23868,13123.33
3938,23812,13126.67
3939,23768,13130.00
3940,23748,13133.33
3941,23748,13136.67
3942,23752,13140.00
3943,23760,13143.33
3944,23768,13146.67
3945,23768,13150.00
3946,23776,13153.33
3947,23780,13156.67
3948,23788,13160.00
3949,23792,13163.33
3950,23792,13166.67
3951,23792,13170.00
3952,23792,13173.33
3953,23796,13176.67
3954,23804,13180.00
3955,23812,13183.33
3956,23832,13186.67
3957,23848,13190.00
3958,23864,13193.33
3959,23884,13196.67
3960,23904,13200.00
3961,23916,13203.33
3962,23936,13206.67
3963,23952,13210.00
3964,23964,13213.33
3965,23980,13216.67
3966,23996,13220.00
3967,24004,13223.33
3968,24020,13226.67
3969,24036,13230.00
3970,24052,13233.33
3971,24072,13236.67
3972,24084,13240.00
3973,24100,13243.33
3974,24088,13246.67
3975,24040,13250.00
3976,23968,13253.33
3977,23888,13256.67
3978,23820,13260.00
3979,23776,13263.33
3980,23752,13266.67
3981,23748,13270.00
3982,23748,13273.33
3983,23752,13276.67
3984,23752,13280.00
3985,23760,13283.33
3986,23764,13286.67
3987,23768,13290.00
3988,23772,13293.33
3989,23772,13296.67
3990,23768,13300.00
3991,23768,13303.33
3992,23768,13306.67
3993,23772,13310.00
3994,23780,13313.33
3995,23792,13316.67
3996,23808,13320.00
3997,23828,13323.33
3998,23848,13326.67
3999,23864,13330.00
4000,23880,13333.33
4001,23900,13336.67
4002,23916,13340.00
4003,23936,13343.33
4004,23944,13346.67
4005,23964,13350.00
4006,23980,13353.33
4007,23992,13356.67
4008,24004,13360.00
4009,24020,13363.33
4010,24036,13366.67
4011,24052,13370.00
4012,24064,13373.33
4013,24080,13376.67
4014,24100,13380.00
4015,24120,13383.33
4016,24136,13386.67
4017,24144,13390.00
4018,24120,13393.33
4019,24056,13396.67
4020,23976,13400.00
4021,23884,13403.33
4022,23812,13406.67
4023,23764,13410.00
4024,23740,13413.33
4025,23736,13416.67
4026,23732,13420.00
4027,23736,13423.33
4028,23740,13426.67
4029,23744,13430.00
4030,23752,13433.33
4031,23752,13436.67
4032,23756,13440.00
4033,23752,13443.33
4034,23748,13446.67
4035,23744,13450.00
4036,23748,13453.33
4037,23748,13456.67
4038,23756,13460.00
4039,23768,13463.33
4040,23788,13466.67
4041,23804,13470.00
4042,23820,13473.33
4043,23840,13476.67
4044,23856,13480.00
4045,23880,13483.33
4046,23896,13486.67
4047,23912,13490.00
4048,23928,13493.33
4049,23944,13496.67
4050,23960,13500.00
4051,23976,13503.33
4052,23988,13506.67
4053,24000,13510.00
4054,24020,13513.33
4055,24036,13516.67
4056,24056,13520.00
4057,24068,13523.33
4058,24092,13526.67
4059,24092,13530.00
4060,24060,13533.33
4061,23992,13536.67
4062,23904,13540.00
4063,23816,13543.33
4064,23744,13546.67
4065,23704,13550.00
4066,23684,13553.33
4067,23684,13556.67
4068,23688,13560.00
4069,23688,13563.33
4070,23696,13566.67
4071,23700,13570.00
4072,23704,13573.33
4073,23708,13576.67
4074,23708,13580.00
4075,23704,13583.33
4076,23700,13586.67
4077,23700,13590.00
4078,23696,13593.33
4079,23708,13596.67
4080,23712,13600.00
4081,23728,13603.33
4082,23748,13606.67
4083,23764,13610.00
4084,23788,13613.33
4085,23804,13616.67
4086,23824,13620.00
4087,23840,13623.33
4088,23860,13626.67
4089,23880,13630.00
4090,23896,13633.33
4091,23912,13636.67
4092,23928,13640.00
4093,23944,13643.33
4094,23964,13646.67
4095,23980,13650.00
4096,23996,13653.33
4097,24012,13656.67
4098,24032,13660.00
4099,24052,13663.33
4100,24068,13666.67
4101,24052,13670.00
4102,23992,13673.33
4103,23904,13676.67
4104,23804,13680.00
4105,23708,13683.33
4106,23644,13686.67
4107,23608,13690.00
4108,23592,13693.33
4109,23592,13696.67
4110,23596,13700.00
4111,23596,13703.33
4112,23596,13706.67
4113,23604,13710.00
4114,23612,13713.33
4115,23620,13716.67
4116,23616,13720.00
4117,23616,13723.33
4118,23612,13726.67
4119,23612,13730.00
4120,23612,13733.33
4121,23620,13736.67
4122,23636,13740.00
4123,23652,13743.33
4124,23672,13746.67
4125,23692,13750.00
4126,23712,13753.33
4127,23732,13756.67
4128,23752,13760.00
4129,23772,13763.33
4130,23792,13766.67
4131,23808,13770.00
4132,23824,13773.33
4133,23844,13776.67
4134,23864,13780.00
4135,23880,13783.33
4136,23896,13786.67
4137,23912,13790.00
4138,23932,13793.33
4139,23948,13796.67
4140,23964,13800.00
4141,23988,13803.33
4142,24012,13806.67
4143,24004,13810.00
4144,23952,13813.33
4145,23864,13816.67
4146,23760,13820.00
4147,23652,13823.33
4148,23568,13826.67
4149,23520,13830.00
4150,23500,13833.33
4151,23496,13836.67
4152,23500,13840.00
4153,23508,13843.33
4154,23512,13846.67
4155,23520,13850.00
4156,23524,13853.33
4157,23532,13856.67
4158,23536,13860.00
4159,23536,13863.33
4160,23532,13866.67
4161,23532,13870.00
4162,23536,13873.33
4163,23544,13876.67
4164,23560,13880.00
4165,23576,13883.33
4166,23596,13886.67
4167,23620,13890.00
4168,23644,13893.33
4169,23668,13896.67
4170,23688,13900.00
4171,23712,13903.33
4172,23728,13906.67
4173,23744,13910.00
4174,23764,13913.33
4175,23776,13916.67
4176,23788,13920.00
4177,23804,13923.33
4178,23812,13926.67
4179,23824,13930.00
4180,23836,13933.33
4181,23848,13936.67
4182,23860,13940.00
4183,23872,13943.33
4184,23884,13946.67
4185,23900,13950.00
4186,23896,13953.33
4187,23836,13956.67
4188,23740,13960.00
4189,23616,13963.33
4190,23496,13966.67
4191,23396,13970.00
4192,23344,13973.33
4193,23320,13976.67
4194,23316,13980.00
4195,23324,13983.33
4196,23340,13986.67
4197,23348,13990.00
4198,23364,13993.33
4199,23376,13996.67
4200,23388,14000.00
4201,23396,14003.33
4202,23392,14006.67
4203,23388,14010.00
4204,23388,14013.33
4205,23388,14016.67
4206,23396,14020.00
4207,23408,14023.33
4208,23424,14026.67
4209,23444,14030.00
4210,23460,14033.33
4211,23484,14036.67
4212,23504,14040.00
4213,23524,14043.33
4214,23540,14046.67
4215,23560,14050.00
4216,23572,14053.33
4217,23592,14056.67
4218,23608,14060.00
4219,23620,14063.33
4220,23636,14066.67
4221,23652,14070.00
4222,23664,14073.33
4223,23680,14076.67
4224,23692,14080.00
4225,23708,14083.33
4226,23724,14086.67
4227,23744,14090.00
4228,23764,14093.33
4229,23752,14096.67
4230,23692,14100.00
4231,23584,14103.33
4232,23448,14106.67
4233,23328,14110.00
4234,23236,14113.33
4235,23184,14116.67
4236,23164,14120.00
4237,23168,14123.33
4238,23176,14126.67
4239,23188,14130.00
4240,23204,14133.33
4241,23212,14136.67
4242,23228,14140.00
4243,23240,14143.33
4244,23244,14146.67
4245,23244,14150.00
4246,23244,14153.33
4247,23240,14156.67
4248,23248,14160.00
4249,23260,14163.33
4250,23276,14166.67
4251,23300,14170.00
4252,23324,14173.33
4253,23352,14176.67
4254,23376,14180.00
4255,23396,14183.33
4256,23424,14186.67
4257,23440,14190.00
4258,23464,14193.33
4259,23480,14196.67
4260,23492,14200.00
4261,23512,14203.33
4262,23528,14206.67
4263,23544,14210.00
4264,23560,14213.33
4265,23576,14216.67
4266,23596,14220.00
4267,23620,14223.33
4268,23616,14226.67
4269,23556,14230.00
4270,23460,14233.33
4271,23344,14236.67
4272,23236,14240.00
4273,23160,14243.33
4274,23120,14246.67
4275,23116,14250.00
4276,23128,14253.33
4277,23144,14256.67
4278,23164,14260.00
4279,23192,14263.33
4280,23212,14266.67
4281,23228,14270.00
4282,23236,14273.33
4283,23228,14276.67
4284,23224,14280.00
4285,23216,14283.33
4286,23208,14286.67
4287,23216,14290.00
4288,23228,14293.33
4289,23248,14296.67
4290,23268,14300.00
4291,23296,14303.33
4292,23324,14306.67
4293,23352,14310.00
4294,23376,14313.33
4295,23400,14316.67
4296,23420,14320.00
4297,23440,14323.33
4298,23456,14326.67
4299,23472,14330.00
4300,23488,14333.33
4301,23496,14336.67
4302,23508,14340.00
4303,23520,14343.33
4304,23540,14346.67
4305,23556,14350.00
4306,23556,14353.33
4307,23504,14356.67
4308,23400,14360.00
4309,23272,14363.33
4310,23136,14366.67
4311,23036,14370.00
4312,22980,14373.33
4313,22952,14376.67
4314,22948,14380.00
4315,22952,14383.33
4316,22956,14386.67
4317,22956,14390.00
4318,22968,14393.33
4319,22980,14396.67
4320,22988,14400.00
4321,22996,14403.33
4322,22996,14406.67
4323,22996,14410.00
4324,22996,14413.33
4325,23004,14416.67
4326,23012,14420.00
4327,23028,14423.33
4328,23052,14426.67
4329,23076,14430.00
4330,23108,14433.33
4331,23132,14436.67
4332,23160,14440.00
4333,23184,14443.33
4334,23212,14446.67
4335,23232,14450.00
4336,23252,14453.33
4337,23276,14456.67
4338,23292,14460.00
4339,23316,14463.33
4340,23332,14466.67
4341,23348,14470.00
4342,23368,14473.33
4343,23388,14476.67
4344,23408,14480.00
4345,23432,14483.33
4346,23452,14486.67
4347,23460,14490.00
4348,23416,14493.33
4349,23312,14496.67
4350,23164,14500.00
4351,23020,14503.33
4352,22908,14506.67
4353,22836,14510.00
4354,22808,14513.33
4355,22800,14516.67
4356,22804,14520.00
4357,22800,14523.33
4358,22796,14526.67
4359,22800,14530.00
4360,22812,14533.33
4361,22824,14536.67
4362,22836,14540.00
4363,22844,14543.33
4364,22852,14546.67
4365,22852,14550.00
4366,22860,14553.33
4367,22868,14556.67
4368,22888,14560.00
4369,22912,14563.33
4370,22936,14566.67
4371,22968,14570.00
4372,22992,14573.33
4373,23016,14576.67
4374,23044,14580.00
4375,23064,14583.33
4376,23084,14586.67
4377,23108,14590.00
4378,23120,14593.33
4379,23136,14596.67
4380,23152,14600.00
4381,23172,14603.33
4382,23192,14606.67
4383,23212,14610.00
4384,23236,14613.33
4385,23256,14616.67
4386,23276,14620.00
4387,23304,14623.33
4388,23328,14626.67
4389,23352,14630.00
4390,23372,14633.33
4391,23396,14636.67
4392,23416,14640.00
4393,23436,14643.33
4394,23452,14646.67
4395,23428,14650.00
4396,23344,14653.33
4397,23208,14656.67
4398,23044,14660.00
4399,22904,14663.33
4400,22800,14666.67
4401,22744,14670.00
4402,22728,14673.33
4403,22724,14676.67
4404,22728,14680.00
4405,22720,14683.33
4406,22720,14686.67
4407,22724,14690.00
4408,22732,14693.33
4409,22748,14696.67
4410,22764,14700.00
4411,22776,14703.33
4412,22780,14706.67
4413,22784,14710.00
4414,22796,14713.33
4415,22812,14716.67
4416,22832,14720.00
4417,22856,14723.33
4418,22880,14726.67
4419,22912,14730.00
4420,22940,14733.33
4421,22968,14736.67
4422,22996,14740.00
4423,23020,14743.33
4424,23040,14746.67
4425,23060,14750.00
4426,23084,14753.33
4427,23108,14756.67
4428,23132,14760.00
4429,23148,14763.33
4430,23172,14766.67
4431,23196,14770.00
4432,23224,14773.33
4433,23244,14776.67
4434,23264,14780.00
4435,23292,14783.33
4436,23312,14786.67
4437,23336,14790.00
4438,23360,14793.33
4439,23376,14796.67
4440,23400,14800.00
4441,23416,14803.33
4442,23440,14806.67
4443,23424,14810.00
4444,23356,14813.33
4445,23228,14816.67
4446,23080,14820.00
4447,22936,14823.33
4448,22836,14826.67
4449,22776,14830.00
4450,22760,14833.33
4451,22764,14836.67
4452,22772,14840.00
4453,22776,14843.33
4454,22776,14846.67
4455,22784,14850.00
4456,22796,14853.33
4457,22808,14856.67
4458,22816,14860.00
4459,22824,14863.33
4460,22828,14866.67
4461,22832,14870.00
4462,22840,14873.33
4463,22856,14876.67
4464,22880,14880.00
4465,22912,14883.33
4466,22944,14886.67
4467,22980,14890.00
4468,23012,14893.33
4469,23040,14896.67
4470,23076,14900.00
4471,23108,14903.33
4472,23132,14906.67
4473,23156,14910.00
4474,23176,14913.33
4475,23200,14916.67
4476,23224,14920.00
4477,23248,14923.33
4478,23268,14926.67
4479,23296,14930.00
4480,23320,14933.33
4481,23344,14936.67
4482,23364,14940.00
4483,23392,14943.33
4484,23412,14946.67
4485,23436,14950.00
4486,23460,14953.33
4487,23484,14956.67
4488,23504,14960.00
4489,23492,14963.33
4490,23428,14966.67
4491,23304,14970.00
4492,23152,14973.33
4493,23012,14976.67
4494,22908,14980.00
4495,22848,14983.33
4496,22820,14986.67
4497,22824,14990.00
4498,22832,14993.33
4499,22844,14996.67
4500,22844,15000.00
4501,22856,15003.33
4502,22872,15006.67
4503,22880,15010.00
4504,22892,15013.33
4505,22896,15016.67
4506,22904,15020.00
4507,22904,15023.33
4508,22908,15026.67
4509,22924,15030.00
4510,22940,15033.33
4511,22968,15036.67
4512,22996,15040.00
4513,23028,15043.33
4514,23056,15046.67
4515,23092,15050.00
4516,23120,15053.33
4517,23148,15056.67
4518,23172,15060.00
4519,23196,15063.33
4520,23220,15066.67
4521,23244,15070.00
4522,23264,15073.33
4523,23284,15076.67
4524,23312,15080.00
4525,23336,15083.33
4526,23356,15086.67
4527,23384,15090.00
4528,23404,15093.33
4529,23432,15096.67
4530,23452,15100.00
4531,23476,15103.33
4532,23496,15106.67
4533,23516,15110.00
4534,23544,15113.33
4535,23560,15116.67
4536,23564,15120.00
4537,23508,15123.33
4538,23388,15126.67
4539,23240,15130.00
4540,23084,15133.33
4541,22964,15136.67
4542,22888,15140.00
4543,22856,15143.33
4544,22848,15146.67
4545,22856,15150.00
4546,22860,15153.33
4547,22856,15156.67
4548,22856,15160.00
4549,22864,15163.33
4550,22880,15166.67
4551,22888,15170.00
4552,22896,15173.33
4553,22900,15176.67
4554,22900,15180.00
4555,22908,15183.33
4556,22920,15186.67
4557,22936,15190.00
4558,22960,15193.33
4559,22984,15196.67
4560,23012,15200.00
4561,23044,15203.33
4562,23072,15206.67
4563,23100,15210.00
4564,23128,15213.33
4565,23148,15216.67
4566,23172,15220.00
4567,23192,15223.33
4568,23216,15226.67
4569,23236,15230.00
4570,23256,15233.33
4571,23280,15236.67
4572,23296,15240.00
4573,23324,15243.33
4574,23344,15246.67
4575,23368,15250.00
4576,23388,15253.33
4577,23412,15256.67
4578,23436,15260.00
4579,23460,15263.33
4580,23480,15266.67
4581,23504,15270.00
4582,23524,15273.33
4583,23548,15276.67
4584,23572,15280.00
4585,23588,15283.33
4586,23576,15286.67
4587,23504,15290.00
4588,23372,15293.33
4589,23216,15296.67
4590,23068,15300.00
4591,22964,15303.33
4592,22900,15306.67
4593,22876,15310.00
4594,22872,15313.33
4595,22884,15316.67
4596,22892,15320.00
4597,22892,15323.33
4598,22896,15326.67
4599,22912,15330.00
4600,22924,15333.33
4601,22932,15336.67
4602,22940,15340.00
4603,22948,15343.33
4604,22952,15346.67
4605,22956,15350.00
4606,22968,15353.33
4607,22984,15356.67
4608,23008,15360.00
4609,23032,15363.33
4610,23060,15366.67
4611,23092,15370.00
4612,23120,15373.33
4613,23144,15376.67
4614,23176,15380.00
4615,23200,15383.33
4616,23224,15386.67
4617,23244,15390.00
4618,23264,15393.33
4619,23284,15396.67
4620,23304,15400.00
4621,23324,15403.33
4622,23344,15406.67
4623,23364,15410.00
4624,23384,15413.33
4625,23408,15416.67
4626,23432,15420.00
4627,23456,15423.33
4628,23476,15426.67
4629,23504,15430.00
4630,23528,15433.33
4631,23548,15436.67
4632,23568,15440.00
4633,23592,15443.33
4634,23612,15446.67
4635,23616,15450.00
4636,23564,15453.33
4637,23456,15456.67
4638,23316,15460.00
4639,23172,15463.33
4640,23052,15466.67
4641,22984,15470.00
4642,22952,15473.33
4643,22948,15476.67
4644,22956,15480.00
4645,22972,15483.33
4646,22976,15486.67
4647,22988,15490.00
4648,23000,15493.33
4649,23008,15496.67
4650,23012,15500.00
4651,23012,15503.33
4652,23008,15506.67
4653,23004,15510.00
4654,23008,15513.33
4655,23016,15516.67
4656,23032,15520.00
4657,23052,15523.33
4658,23080,15526.67
4659,23116,15530.00
4660,23148,15533.33
4661,23176,15536.67
4662,23204,15540.00
4663,23228,15543.33
4664,23252,15546.67
4665,23276,15550.00
4666,23292,15553.33
4667,23308,15556.67
4668,23324,15560.00
4669,23340,15563.33
4670,23360,15566.67
4671,23380,15570.00
4672,23396,15573.33
4673,23416,15576.67
4674,23440,15580.00
4675,23464,15583.33
4676,23484,15586.67
4677,23504,15590.00
4678,23532,15593.33
4679,23548,15596.67
4680,23528,15600.00
4681,23448,15603.33
4682,23328,15606.67
4683,23184,15610.00
4684,23048,15613.33
4685,22960,15616.67
4686,22916,15620.00
4687,22904,15623.33
4688,22916,15626.67
4689,22928,15630.00
4690,22940,15633.33
4691,22960,15636.67
4692,22972,15640.00
4693,22992,15643.33
4694,23004,15646.67
4695,23008,15650.00
4696,23012,15653.33
4697,23008,15656.67
4698,23012,15660.00
4699,23020,15663.33
4700,23028,15666.67
4701,23052,15670.00
4702,23080,15673.33
4703,23112,15676.67
4704,23144,15680.00
4705,23176,15683.33
4706,23208,15686.67
4707,23236,15690.00
4708,23264,15693.33
4709,23284,15696.67
4710,23308,15700.00
4711,23324,15703.33
4712,23344,15706.67
4713,23360,15710.00
4714,23380,15713.33
4715,23404,15716.67
4716,23420,15720.00
4717,23440,15723.33
4718,23460,15726.67
4719,23484,15730.00
4720,23504,15733.33
4721,23528,15736.67
4722,23548,15740.00
4723,23572,15743.33
4724,23588,15746.67
4725,23548,15750.00
4726,23448,15753.33
4727,23300,15756.67
4728,23140,15760.00
4729,23004,15763.33
4730,22916,15766.67
4731,22872,15770.00
4732,22860,15773.33
4733,22868,15776.67
4734,22876,15780.00
4735,22880,15783.33
4736,22880,15786.67
4737,22892,15790.00
4738,22908,15793.33
4739,22920,15796.67
4740,22928,15800.00
4741,22932,15803.33
4742,22936,15806.67
4743,22940,15810.00
4744,22944,15813.33
4745,22960,15816.67
4746,22980,15820.00
4747,23008,15823.33
4748,23040,15826.67
4749,23076,15830.00
4750,23104,15833.33
4751,23136,15836.67
4752,23164,15840.00
4753,23192,15843.33
4754,23220,15846.67
4755,23240,15850.00
4756,23260,15853.33
4757,23280,15856.67
4758,23300,15860.00
4759,23320,15863.33
4760,23340,15866.67
4761,23360,15870.00
4762,23384,15873.33
4763,23408,15876.67
4764,23428,15880.00
4765,23452,15883.33
4766,23476,15886.67
4767,23496,15890.00
4768,23524,15893.33
4769,23544,15896.67
4770,23552,15900.00
4771,23504,15903.33
4772,23396,15906.67
4773,23244,15910.00
4774,23076,15913.33
4775,22948,15916.67
4776,22860,15920.00
4777,22820,15923.33
4778,22820,15926.67
4779,22828,15930.00
4780,22832,15933.33
4781,22836,15936.67
4782,22840,15940.00
4783,22852,15943.33
4784,22860,15946.67
4785,22876,15950.00
4786,22884,15953.33
4787,22888,15956.67
4788,22896,15960.00
4789,22896,15963.33
4790,22904,15966.67
4791,22916,15970.00
4792,22940,15973.33
4793,22960,15976.67
4794,22996,15980.00
4795,23032,15983.33
4796,23060,15986.67
4797,23092,15990.00
4798,23120,15993.33
4799,23144,15996.67
4800,23168,16000.00
4801,23192,16003.33
4802,23208,16006.67
4803,23228,16010.00
4804,23248,16013.33
4805,23264,16016.67
4806,23284,16020.00
4807,23304,16023.33
4808,23328,16026.67
4809,23352,16030.00
4810,23376,16033.33
4811,23396,16036.67
4812,23420,16040.00
4813,23440,16043.33
4814,23464,16046.67
4815,23484,16050.00
4816,23508,16053.33
4817,23524,16056.67
4818,23500,16060.00
4819,23404,16063.33
4820,23256,16066.67
4821,23092,16070.00
4822,22952,16073.33
4823,22860,16076.67
4824,22820,16080.00
4825,22812,16083.33
4826,22824,16086.67
4827,22844,16090.00
4828,22860,16093.33
4829,22872,16096.67
4830,22888,16100.00
4831,22908,16103.33
4832,22912,16106.67
4833,22920,16110.00
4834,22916,16113.33
4835,22916,16116.67
4836,22916,16120.00
4837,22924,16123.33
4838,22932,16126.67
4839,22960,16130.00
4840,22988,16133.33
4841,23020,16136.67
4842,23052,16140.00
4843,23084,16143.33
4844,23116,16146.67
4845,23144,16150.00
4846,23168,16153.33
4847,23188,16156.67
4848,23208,16160.00
4849,23228,16163.33
4850,23240,16166.67
4851,23264,16170.00
4852,23280,16173.33
4853,23300,16176.67
4854,23320,16180.00
4855,23340,16183.33
4856,23364,16186.67
4857,23380,16190.00
4858,23408,16193.33
4859,23424,16196.67
4860,23448,16200.00
4861,23472,16203.33
4862,23488,16206.67
4863,23464,16210.00
4864,23372,16213.33
4865,23220,16216.67
4866,23056,16220.00
4867,22912,16223.33
4868,22820,16226.67
4869,22772,16230.00
4870,22764,16233.33
4871,22780,16236.67
4872,22792,16240.00
4873,22808,16243.33
4874,22816,16246.67
4875,22828,16250.00
4876,22848,16253.33
4877,22868,16256.67
4878,22876,16260.00
4879,22884,16263.33
4880,22892,16266.67
4881,22896,16270.00
4882,22908,16273.33
4883,22924,16276.67
4884,22940,16280.00
4885,22968,16283.33
4886,23004,16286.67
4887,23036,16290.00
4888,23068,16293.33
4889,23096,16296.67
4890,23128,16300.00
4891,23156,16303.33
4892,23180,16306.67
4893,23208,16310.00
4894,23228,16313.33
4895,23248,16316.67
4896,23268,16320.00
4897,23284,16323.33
4898,23308,16326.67
4899,23324,16330.00
4900,23348,16333.33
4901,23364,16336.67
4902,23388,16340.00
4903,23404,16343.33
4904,23428,16346.67
4905,23448,16350.00
4906,23468,16353.33
4907,23488,16356.67
4908,23516,16360.00
4909,23532,16363.33
4910,23520,16366.67
4911,23432,16370.00
4912,23284,16373.33
4913,23104,16376.67
4914,22936,16380.00
4915,22820,16383.33
4916,22756,16386.67
4917,22740,16390.00
4918,22744,16393.33
4919,22756,16396.67
4920,22768,16400.00
4921,22776,16403.33
4922,22780,16406.67
4923,22800,16410.00
4924,22816,16413.33
4925,22828,16416.67
4926,22840,16420.00
4927,22844,16423.33
4928,22852,16426.67
4929,22852,16430.00
4930,22868,16433.33
4931,22888,16436.67
4932,22912,16440.00
4933,22944,16443.33
4934,22980,16446.67
4935,23012,16450.00
4936,23052,16453.33
4937,23084,16456.67
4938,23112,16460.00
4939,23140,16463.33
4940,23160,16466.67
4941,23184,16470.00
4942,23204,16473.33
4943,23224,16476.67
4944,23248,16480.00
4945,23268,16483.33
4946,23288,16486.67
4947,23312,16490.00
4948,23336,16493.33
4949,23360,16496.67
4950,23380,16500.00
4951,23408,16503.33
4952,23432,16506.67
4953,23452,16510.00
4954,23472,16513.33
4955,23496,16516.67
4956,23520,16520.00
4957,23540,16523.33
4958,23524,16526.67
4959,23436,16530.00
4960,23284,16533.33
4961,23108,16536.67
4962,22944,16540.00
4963,22828,16543.33
4964,22772,16546.67
4965,22756,16550.00
4966,22764,16553.33
4967,22784,16556.67
4968,22796,16560.00
4969,22804,16563.33
4970,22812,16566.67
4971,22824,16570.00
4972,22840,16573.33
4973,22848,16576.67
4974,22852,16580.00
4975,22856,16583.33
4976,22856,16586.67
4977,22864,16590.00
4978,22872,16593.33
4979,22888,16596.67
4980,22912,16600.00
4981,22940,16603.33
4982,22976,16606.67
4983,23008,16610.00
4984,23040,16613.33
4985,23072,16616.67
4986,23096,16620.00
4987,23120,16623.33
4988,23148,16626.67
4989,23168,16630.00
4990,23192,16633.33
4991,23212,16636.67
4992,23232,16640.00
4993,23252,16643.33
4994,23276,16646.67
4995,23296,16650.00
4996,23324,16653.33
4997,23344,16656.67
4998,23368,16660.00
4999,23392,16663.33
5000,23412,16666.67
5001,23440,16670.00
5002,23460,16673.33
5003,23488,16676.67
5004,23492,16680.00
5005,23424,16683.33
5006,23300,16686.67
5007,23128,16690.00
5008,22968,16693.33
5009,22848,16696.67
5010,22780,16700.00
5011,22760,16703.33
5012,22772,16706.67
5013,22792,16710.00
5014,22816,16713.33
5015,22832,16716.67
5016,22856,16720.00
5017,22872,16723.33
5018,22884,16726.67
5019,22888,16730.00
5020,22888,16733.33
5021,22888,16736.67
5022,22880,16740.00
5023,22880,16743.33
5024,22892,16746.67
5025,22908,16750.00
5026,22940,16753.33
5027,22968,16756.67
5028,23004,16760.00
5029,23036,16763.33
5030,23072,16766.67
5031,23104,16770.00
5032,23136,16773.33
5033,23160,16776.67
5034,23188,16780.00
5035,23208,16783.33
5036,23232,16786.67
5037,23248,16790.00
5038,23268,16793.33
5039,23288,16796.67
5040,23312,16800.00
5041,23336,16803.33
5042,23356,16806.67
5043,23384,16810.00
5044,23408,16813.33
5045,23436,16816.67
5046,23456,16820.00
5047,23488,16823.33
5048,23512,16826.67
5049,23524,16830.00
5050,23472,16833.33
5051,23352,16836.67
5052,23180,16840.00
5053,23008,16843.33
5054,22868,16846.67
5055,22784,16850.00
5056,22748,16853.33
5057,22748,16856.67
5058,22764,16860.00
5059,22784,16863.33
5060,22796,16866.67
5061,22808,16870.00
5062,22824,16873.33
5063,22844,16876.67
5064,22860,16880.00
5065,22868,16883.33
5066,22868,16886.67
5067,22868,16890.00
5068,22872,16893.33
5069,22876,16896.67
5070,22884,16900.00
5071,22912,16903.33
5072,22936,16906.67
5073,22964,16910.00
5074,23000,16913.33
5075,23032,16916.67
5076,23068,16920.00
5077,23096,16923.33
5078,23128,16926.67
5079,23148,16930.00
5080,23172,16933.33
5081,23192,16936.67
5082,23208,16940.00
5083,23224,16943.33
5084,23248,16946.67
5085,23268,16950.00
5086,23288,16953.33
5087,23308,16956.67
5088,23332,16960.00
5089,23356,16963.33
5090,23380,16966.67
5091,23404,16970.00
5092,23432,16973.33
5093,23456,16976.67
5094,23480,16980.00
5095,23504,16983.33
5096,23500,16986.67
5097,23428,16990.00
5098,23280,16993.33
5099,23096,16996.67
5100,22924,17000.00
5101,22796,17003.33
5102,22720,17006.67
5103,22696,17010.00
5104,22700,17013.33
5105,22720,17016.67
5106,22736,17020.00
5107,22744,17023.33
5108,22756,17026.67
5109,22772,17030.00
5110,22792,17033.33
5111,22808,17036.67
5112,22816,17040.00
5113,22820,17043.33
5114,22824,17046.67
5115,22832,17050.00
5116,22840,17053.33
5117,22852,17056.67
5118,22884,17060.00
5119,22912,17063.33
5120,22948,17066.67
5121,22984,17070.00
5122,23020,17073.33
5123,23052,17076.67
5124,23084,17080.00
5125,23108,17083.33
5126,23132,17086.67
5127,23156,17090.00
5128,23176,17093.33
5129,23192,17096.67
5130,23208,17100.00
5131,23228,17103.33
5132,23248,17106.67
5133,23268,17110.00
5134,23288,17113.33
5135,23312,17116.67
5136,23336,17120.00
5137,23360,17123.33
5138,23388,17126.67
5139,23412,17130.00
5140,23436,17133.33
5141,23460,17136.67
5142,23480,17140.00
5143,23500,17143.33
5144,23528,17146.67
5145,23516,17150.00
5146,23436,17153.33
5147,23284,17156.67
5148,23100,17160.00
5149,22920,17163.33
5150,22788,17166.67
5151,22716,17170.00
5152,22684,17173.33
5153,22688,17176.67
5154,22704,17180.00
5155,22720,17183.33
5156,22724,17186.67
5157,22728,17190.00
5158,22736,17193.33
5159,22748,17196.67
5160,22752,17200.00
5161,22756,17203.33
5162,22756,17206.67
5163,22752,17210.00
5164,22752,17213.33
5165,22760,17216.67
5166,22776,17220.00
5167,22796,17223.33
5168,22824,17226.67
5169,22856,17230.00
5170,22888,17233.33
5171,22920,17236.67
5172,22952,17240.00
5173,22984,17243.33
5174,23004,17246.67
5175,23032,17250.00
5176,23060,17253.33
5177,23076,17256.67
5178,23100,17260.00
5179,23120,17263.33
5180,23140,17266.67
5181,23164,17270.00
5182,23180,17273.33
5183,23204,17276.67
5184,23228,17280.00
5185,23252,17283.33
5186,23276,17286.67
5187,23300,17290.00
5188,23320,17293.33
5189,23340,17296.67
5190,23364,17300.00
5191,23388,17303.33
5192,23412,17306.67
5193,23404,17310.00
5194,23320,17313.33
5195,23164,17316.67
5196,22984,17320.00
5197,22812,17323.33
5198,22684,17326.67
5199,22612,17330.00
5200,22588,17333.33
5201,22596,17336.67
5202,22616,17340.00
5203,22636,17343.33
5204,22660,17346.67
5205,22680,17350.00
5206,22708,17353.33
5207,22720,17356.67
5208,22728,17360.00
5209,22736,17363.33
5210,22728,17366.67
5211,22728,17370.00
5212,22728,17373.33
5213,22740,17376.67
5214,22760,17380.00
5215,22784,17383.33
5216,22812,17386.67
5217,22852,17390.00
5218,22896,17393.33
5219,22948,17396.67
5220,22996,17400.00
5221,23044,17403.33
5222,23088,17406.67
5223,23124,17410.00
5224,23164,17413.33
5225,23196,17416.67
5226,23220,17420.00
5227,23248,17423.33
5228,23268,17426.67
5229,23292,17430.00
5230,23308,17433.33
5231,23336,17436.67
5232,23364,17440.00
5233,23392,17443.33
5234,23424,17446.67
5235,23432,17450.00
5236,23400,17453.33
5237,23296,17456.67
5238,23136,17460.00
5239,22964,17463.33
5240,22824,17466.67
5241,22732,17470.00
5242,22688,17473.33
5243,22684,17476.67
5244,22704,17480.00
5245,22728,17483.33
5246,22748,17486.67
5247,22772,17490.00
5248,22792,17493.33
5249,22820,17496.67
5250,22828,17500.00
5251,22836,17503.33
5252,22832,17506.67
5253,22828,17510.00
5254,22824,17513.33
5255,22832,17516.67
5256,22848,17520.00
5257,22872,17523.33
5258,22908,17526.67
5259,22932,17530.00
5260,22972,17533.33
5261,23008,17536.67
5262,23044,17540.00
5263,23072,17543.33
5264,23104,17546.67
5265,23128,17550.00
5266,23152,17553.33
5267,23168,17556.67
5268,23188,17560.00
5269,23212,17563.33
5270,23232,17566.67
5271,23256,17570.00
5272,23272,17573.33
5273,23296,17576.67
5274,23316,17580.00
5275,23340,17583.33
5276,23368,17586.67
5277,23392,17590.00
5278,23380,17593.33
5279,23288,17596.67
5280,23136,17600.00
5281,22952,17603.33
5282,22788,17606.67
5283,22672,17610.00
5284,22612,17613.33
5285,22596,17616.67
5286,22604,17620.00
5287,22628,17623.33
5288,22640,17626.67
5289,22644,17630.00
5290,22660,17633.33
5291,22684,17636.67
5292,22700,17640.00
5293,22716,17643.33
5294,22732,17646.67
5295,22732,17650.00
5296,22740,17653.33
5297,22744,17656.67
5298,22760,17660.00
5299,22780,17663.33
5300,22804,17666.67
5301,22844,17670.00
5302,22880,17673.33
5303,22916,17676.67
5304,22948,17680.00
5305,22988,17683.33
5306,23016,17686.67
5307,23044,17690.00
5308,23068,17693.33
5309,23088,17696.67
5310,23108,17700.00
5311,23128,17703.33
5312,23152,17706.67
5313,23164,17710.00
5314,23188,17713.33
5315,23212,17716.67
5316,23232,17720.00
5317,23256,17723.33
5318,23284,17726.67
5319,23312,17730.00
5320,23336,17733.33
5321,23300,17736.67
5322,23192,17740.00
5323,23020,17743.33
5324,22836,17746.67
5325,22676,17750.00
5326,22576,17753.33
5327,22524,17756.67
5328,22524,17760.00
5329,22536,17763.33
5330,22556,17766.67
5331,22564,17770.00
5332,22568,17773.33
5333,22588,17776.67
5334,22608,17780.00
5335,22628,17783.33
5336,22648,17786.67
5337,22660,17790.00
5338,22668,17793.33
5339,22672,17796.67
5340,22680,17800.00
5341,22696,17803.33
5342,22720,17806.67
5343,22748,17810.00
5344,22784,17813.33
5345,22824,17816.67
5346,22864,17820.00
5347,22904,17823.33
5348,22932,17826.67
5349,22964,17830.00
5350,22988,17833.33
5351,23016,17836.67
5352,23040,17840.00
5353,23060,17843.33
5354,23084,17846.67
5355,23104,17850.00
5356,23128,17853.33
5357,23156,17856.67
5358,23180,17860.00
5359,23204,17863.33
5360,23228,17866.67
5361,23256,17870.00
5362,23280,17873.33
5363,23304,17876.67
5364,23332,17880.00
5365,23360,17883.33
5366,23372,17886.67
5367,23316,17890.00
5368,23172,17893.33
5369,22988,17896.67
5370,22796,17900.00
5371,22640,17903.33
5372,22552,17906.67
5373,22508,17910.00
5374,22508,17913.33
5375,22528,17916.67
5376,22548,17920.00
5377,22556,17923.33
5378,22564,17926.67
5379,22584,17930.00
5380,22596,17933.33
5381,22616,17936.67
5382,22636,17940.00
5383,22636,17943.33
5384,22640,17946.67
5385,22644,17950.00
5386,22652,17953.33
5387,22672,17956.67
5388,22700,17960.00
5389,22732,17963.33
5390,22768,17966.67
5391,22808,17970.00
5392,22844,17973.33
5393,22884,17976.67
5394,22920,17980.00
5395,22948,17983.33
5396,22976,17986.67
5397,23004,17990.00
5398,23028,17993.33
5399,23048,17996.67
5400,23068,18000.00
5401,23092,18003.33
5402,23116,18006.67
5403,23140,18010.00
5404,23164,18013.33
5405,23188,18016.67
5406,23216,18020.00
5407,23240,18023.33
5408,23264,18026.67
5409,23288,18030.00
5410,23316,18033.33
5411,23344,18036.67
5412,23360,18040.00
5413,23320,18043.33
5414,23196,18046.67
5415,23016,18050.00
5416,22828,18053.33
5417,22684,18056.67
5418,22588,18060.00
5419,22548,18063.33
5420,22552,18066.67
5421,22576,18070.00
5422,22604,18073.33
5423,22628,18076.67
5424,22648,18080.00
5425,22672,18083.33
5426,22692,18086.67
5427,22696,18090.00
5428,22696,18093.33
5429,22692,18096.67
5430,22688,18100.00
5431,22688,18103.33
5432,22692,18106.67
5433,22712,18110.00
5434,22736,18113.33
5435,22772,18116.67
5436,22808,18120.00
5437,22844,18123.33
5438,22880,18126.67
5439,22916,18130.00
5440,22952,18133.33
5441,22976,18136.67
5442,23008,18140.00
5443,23028,18143.33
5444,23052,18146.67
5445,23072,18150.00
5446,23096,18153.33
5447,23116,18156.67
5448,23136,18160.00
5449,23164,18163.33
5450,23184,18166.67
5451,23212,18170.00
5452,23236,18173.33
5453,23264,18176.67
5454,23292,18180.00
5455,23320,18183.33
5456,23308,18186.67
5457,23216,18190.00
5458,23048,18193.33
5459,22860,18196.67
5460,22692,18200.00
5461,22572,18203.33
5462,22512,18206.67
5463,22500,18210.00
5464,22516,18213.33
5465,22548,18216.67
5466,22572,18220.00
5467,22592,18223.33
5468,22612,18226.67
5469,22640,18230.00
5470,22656,18233.33
5471,22668,18236.67
5472,22672,18240.00
5473,22672,18243.33
5474,22672,18246.67
5475,22680,18250.00
5476,22696,18253.33
5477,22720,18256.67
5478,22748,18260.00
5479,22788,18263.33
5480,22828,18266.67
5481,22868,18270.00
5482,22904,18273.33
5483,22940,18276.67
5484,22972,18280.00
5485,23000,18283.33
5486,23024,18286.67
5487,23052,18290.00
5488,23072,18293.33
5489,23092,18296.67
5490,23112,18300.00
5491,23136,18303.33
5492,23160,18306.67
5493,23184,18310.00
5494,23208,18313.33
5495,23232,18316.67
5496,23260,18320.00
5497,23284,18323.33
5498,23312,18326.67
5499,23328,18330.00
5500,23312,18333.33
5501,23204,18336.67
5502,23024,18340.00
5503,22824,18343.33
5504,22648,18346.67
5505,22528,18350.00
5506,22460,18353.33
5507,22444,18356.67
5508,22460,18360.00
5509,22484,18363.33
5510,22500,18366.67
5511,22504,18370.00
5512,22520,18373.33
5513,22540,18376.67
5514,22560,18380.00
5515,22576,18383.33
5516,22588,18386.67
5517,22584,18390.00
5518,22592,18393.33
5519,22600,18396.67
5520,22616,18400.00
5521,22640,18403.33
5522,22668,18406.67
5523,22704,18410.00
5524,22744,18413.33
5525,22780,18416.67
5526,22820,18420.00
5527,22856,18423.33
5528,22888,18426.67
5529,22920,18430.00
5530,22948,18433.33
5531,22972,18436.67
5532,22996,18440.00
5533,23020,18443.33
5534,23044,18446.67
5535,23068,18450.00
5536,23092,18453.33
5537,23116,18456.67
5538,23140,18460.00
5539,23168,18463.33
5540,23192,18466.67
5541,23224,18470.00
5542,23252,18473.33
5543,23272,18476.67
5544,23236,18480.00
5545,23116,18483.33
5546,22944,18486.67
5547,22756,18490.00
5548,22600,18493.33
5549,22496,18496.67
5550,22452,18500.00
5551,22444,18503.33
5552,22456,18506.67
5553,22472,18510.00
5554,22484,18513.33
5555,22492,18516.67
5556,22508,18520.00
5557,22524,18523.33
5558,22544,18526.67
5559,22552,18530.00
5560,22560,18533.33
5561,22564,18536.67
5562,22572,18540.00
5563,22584,18543.33
5564,22596,18546.67
5565,22624,18550.00
5566,22656,18553.33
5567,22692,18556.67
5568,22732,18560.00
5569,22768,18563.33
5570,22808,18566.67
5571,22840,18570.00
5572,22872,18573.33
5573,22904,18576.67
5574,22928,18580.00
5575,22956,18583.33
5576,22980,18586.67
5577,23008,18590.00
5578,23032,18593.33
5579,23056,18596.67
5580,23080,18600.00
5581,23108,18603.33
5582,23132,18606.67
5583,23156,18610.00
5584,23184,18613.33
5585,23208,18616.67
5586,23232,18620.00
5587,23260,18623.33
5588,23284,18626.67
5589,23256,18630.00
5590,23148,18633.33
5591,23008,18636.67
5592,22856,18640.00
5593,22720,18643.33
5594,22636,18646.67
5595,22596,18650.00
5596,22592,18653.33
5597,22608,18656.67
5598,22624,18660.00
5599,22632,18663.33
5600,22648,18666.67
5601,22668,18670.00
5602,22688,18673.33
5603,22704,18676.67
5604,22704,18680.00
5605,22704,18683.33
5606,22704,18686.67
5607,22704,18690.00
5608,22712,18693.33
5609,22728,18696.67
5610,22756,18700.00
5611,22784,18703.33
5612,22820,18706.67
5613,22852,18710.00
5614,22888,18713.33
5615,22920,18716.67
5616,22952,18720.00
5617,22972,18723.33
5618,22996,18726.67
5619,23016,18730.00
5620,23036,18733.33
5621,23056,18736.67
5622,23076,18740.00
5623,23096,18743.33
5624,23116,18746.67
5625,23140,18750.00
5626,23164,18753.33
5627,23188,18756.67
5628,23216,18760.00
5629,23236,18763.33
5630,23260,18766.67
5631,23284,18770.00
5632,23312,18773.33
5633,23332,18776.67
5634,23316,18780.00
5635,23232,18783.33
5636,23104,18786.67
5637,22964,18790.00
5638,22836,18793.33
5639,22748,18796.67
5640,22700,18800.00
5641,22684,18803.33
5642,22692,18806.67
5643,22704,18810.00
5644,22708,18813.33
5645,22716,18816.67
5646,22732,18820.00
5647,22748,18823.33
5648,22764,18826.67
5649,22768,18830.00
5650,22772,18833.33
5651,22776,18836.67
5652,22776,18840.00
5653,22780,18843.33
5654,22800,18846.67
5655,22820,18850.00
5656,22844,18853.33
5657,22876,18856.67
5658,22904,18860.00
5659,22932,18863.33
5660,22960,18866.67
5661,22984,18870.00
5662,23008,18873.33
5663,23032,18876.67
5664,23052,18880.00
5665,23072,18883.33
5666,23092,18886.67
5667,23108,18890.00
5668,23128,18893.33
5669,23148,18896.67
5670,23172,18900.00
5671,23192,18903.33
5672,23216,18906.67
5673,23240,18910.00
5674,23260,18913.33
5675,23280,18916.67
5676,23308,18920.00
5677,23328,18923.33
5678,23356,18926.67
5679,23384,18930.00
5680,23408,18933.33
5681,23404,18936.67
5682,23340,18940.00
5683,23228,18943.33
5684,23084,18946.67
5685,22948,18950.00
5686,22836,18953.33
5687,22764,18956.67
5688,22732,18960.00
5689,22724,18963.33
5690,22728,18966.67
5691,22728,18970.00
5692,22732,18973.33
5693,22736,18976.67
5694,22748,18980.00
5695,22760,18983.33
5696,22772,18986.67
5697,22784,18990.00
5698,22788,18993.33
5699,22788,18996.67
5700,22796,19000.00
5701,22804,19003.33
5702,22816,19006.67
5703,22836,19010.00
5704,22868,19013.33
5705,22900,19016.67
5706,22928,19020.00
5707,22964,19023.33
5708,22992,19026.67
5709,23016,19030.00
5710,23040,19033.33
5711,23064,19036.67
5712,23084,19040.00
5713,23104,19043.33
5714,23124,19046.67
5715,23140,19050.00
5716,23160,19053.33
5717,23180,19056.67
5718,23196,19060.00
5719,23220,19063.33
5720,23244,19066.67
5721,23272,19070.00
5722,23296,19073.33
5723,23316,19076.67
5724,23340,19080.00
5725,23368,19083.33
5726,23384,19086.67
5727,23408,19090.00
5728,23432,19093.33
5729,23452,19096.67
5730,23456,19100.00
5731,23396,19103.33
5732,23288,19106.67
5733,23148,19110.00
5734,23004,19113.33
5735,22884,19116.67
5736,22804,19120.00
5737,22768,19123.33
5738,22756,19126.67
5739,22764,19130.00
5740,22768,19133.33
5741,22768,19136.67
5742,22780,19140.00
5743,22788,19143.33
5744,22800,19146.67
5745,22808,19150.00
5746,22820,19153.33
5747,22824,19156.67
5748,22824,19160.00
5749,22836,19163.33
5750,22840,19166.67
5751,22856,19170.00
5752,22876,19173.33
5753,22900,19176.67
5754,22932,19180.00
5755,22960,19183.33
5756,22992,19186.67
5757,23024,19190.00
5758,23048,19193.33
5759,23080,19196.67
5760,23100,19200.00
5761,23124,19203.33
5762,23144,19206.67
5763,23164,19210.00
5764,23184,19213.33
5765,23204,19216.67
5766,23224,19220.00
5767,23244,19223.33
5768,23264,19226.67
5769,23288,19230.00
5770,23308,19233.33
5771,23336,19236.67
5772,23360,19240.00
5773,23384,19243.33
5774,23408,19246.67
5775,23428,19250.00
5776,23456,19253.33
5777,23476,19256.67
5778,23500,19260.00
5779,23520,19263.33
5780,23532,19266.67
5781,23492,19270.00
5782,23388,19273.33
5783,23248,19276.67
5784,23096,19280.00
5785,22964,19283.33
5786,22872,19286.67
5787,22820,19290.00
5788,22812,19293.33
5789,22816,19296.67
5790,22832,19300.00
5791,22844,19303.33
5792,22856,19306.67
5793,22872,19310.00
5794,22888,19313.33
5795,22892,19316.67
5796,22896,19320.00
5797,22892,19323.33
5798,22888,19326.67
5799,22884,19330.00
5800,22888,19333.33
5801,22900,19336.67
5802,22920,19340.00
5803,22948,19343.33
5804,22976,19346.67
5805,23008,19350.00
5806,23040,19353.33
5807,23068,19356.67
5808,23096,19360.00
5809,23120,19363.33
5810,23144,19366.67
5811,23160,19370.00
5812,23184,19373.33
5813,23200,19376.67
5814,23216,19380.00
5815,23240,19383.33
5816,23256,19386.67
5817,23280,19390.00
5818,23300,19393.33
5819,23320,19396.67
5820,23340,19400.00
5821,23364,19403.33
5822,23384,19406.67
5823,23408,19410.00
5824,23432,19413.33
5825,23424,19416.67
5826,23356,19420.00
5827,23240,19423.33
5828,23088,19426.67
5829,22948,19430.00
5830,22840,19433.33
5831,22780,19436.67
5832,22760,19440.00
5833,22772,19443.33
5834,22792,19446.67
5835,22820,19450.00
5836,22848,19453.33
5837,22876,19456.67
5838,22892,19460.00
5839,22908,19463.33
5840,22912,19466.67
5841,22904,19470.00
5842,22892,19473.33
5843,22888,19476.67
5844,22888,19480.00
5845,22896,19483.33
5846,22920,19486.67
5847,22948,19490.00
5848,22980,19493.33
5849,23016,19496.67
5850,23052,19500.00
5851,23084,19503.33
5852,23112,19506.67
5853,23144,19510.00
5854,23168,19513.33
5855,23192,19516.67
5856,23212,19520.00
5857,23232,19523.33
5858,23252,19526.67
5859,23272,19530.00
5860,23292,19533.33
5861,23312,19536.67
5862,23332,19540.00
5863,23356,19543.33
5864,23376,19546.67
5865,23368,19550.00
5866,23300,19553.33
5867,23160,19556.67
5868,22996,19560.00
5869,22840,19563.33
5870,22724,19566.67
5871,22660,19570.00
5872,22636,19573.33
5873,22636,19576.67
5874,22648,19580.00
5875,22664,19583.33
5876,22668,19586.67
5877,22676,19590.00
5878,22696,19593.33
5879,22712,19596.67
5880,22720,19600.00
5881,22724,19603.33
5882,22724,19606.67
5883,22728,19610.00
5884,22728,19613.33
5885,22744,19616.67
5886,22760,19620.00
5887,22784,19623.33
5888,22816,19626.67
5889,22852,19630.00
5890,22888,19633.33
5891,22920,19636.67
5892,22952,19640.00
5893,22984,19643.33
5894,23012,19646.67
5895,23032,19650.00
5896,23056,19653.33
5897,23080,19656.67
5898,23104,19660.00
5899,23124,19663.33
5900,23136,19666.67
5901,23096,19670.00
5902,22996,19673.33
5903,22848,19676.67
5904,22692,19680.00
5905,22564,19683.33
5906,22488,19686.67
5907,22460,19690.00
5908,22460,19693.33
5909,22472,19696.67
5910,22484,19700.00
5911,22496,19703.33
5912,22512,19706.67
5913,22532,19710.00
5914,22556,19713.33
5915,22580,19716.67
5916,22592,19720.00
5917,22604,19723.33
5918,22608,19726.67
5919,22612,19730.00
5920,22624,19733.33
5921,22640,19736.67
5922,22664,19740.00
5923,22700,19743.33
5924,22736,19746.67
5925,22772,19750.00
5926,22808,19753.33
5927,22844,19756.67
5928,22872,19760.00
5929,22900,19763.33
5930,22928,19766.67
5931,22952,19770.00
5932,22972,19773.33
5933,22988,19776.67
5934,23012,19780.00
5935,23036,19783.33
5936,23056,19786.67
5937,23084,19790.00
5938,23100,19793.33
5939,23072,19796.67
5940,22968,19800.00
5941,22804,19803.33
5942,22628,19806.67
5943,22480,19810.00
5944,22392,19813.33
5945,22352,19816.67
5946,22352,19820.00
5947,22364,19823.33
5948,22376,19826.67
5949,22376,19830.00
5950,22388,19833.33
5951,22412,19836.67
5952,22440,19840.00
5953,22460,19843.33
5954,22484,19846.67
5955,22496,19850.00
5956,22500,19853.33
5957,22508,19856.67
5958,22520,19860.00
5959,22536,19863.33
5960,22560,19866.67
5961,22596,19870.00
5962,22632,19873.33
5963,22668,19876.67
5964,22704,19880.00
5965,22740,19883.33
5966,22772,19886.67
5967,22804,19890.00
5968,22832,19893.33
5969,22860,19896.67
5970,22884,19900.00
5971,22912,19903.33
5972,22932,19906.67
5973,22952,19910.00
5974,22980,19913.33
5975,23000,19916.67
5976,23028,19920.00
5977,23056,19923.33
5978,23084,19926.67
5979,23112,19930.00
5980,23140,19933.33
5981,23168,19936.67
5982,23192,19940.00
5983,23220,19943.33
5984,23240,19946.67
5985,23264,19950.00
5986,23288,19953.33
5987,23300,19956.67
5988,23320,19960.00
5989,23344,19963.33
5990,23364,19966.67
5991,23368,19970.00
5992,23296,19973.33
5993,23140,19976.67
5994,22932,19980.00
5995,22724,19983.33
5996,22568,19986.67
5997,22472,19990.00
5998,22432,19993.33
5999,22428,19996.67
