Sample_Index,IR_Value,Timestamp_ms
0,20572,0.00
1,20584,10.00
2,20592,20.00
3,20588,30.00
4,20584,40.00
5,20564,50.00
6,20576,60.00
7,20620,70.00
8,20648,80.00
9,20644,90.00
10,20648,100.00
11,20628,110.00
12,20596,120.00
13,20548,130.00
14,20456,140.00
15,20384,150.00
16,20380,160.00
17,20396,170.00
18,20424,180.00
19,20440,190.00
20,20468,200.00
21,20488,210.00
22,20484,220.00
23,20464,230.00
24,20468,240.00
25,20464,250.00
26,20452,260.00
27,20444,270.00
28,20432,280.00
29,20424,290.00
30,20432,300.00
31,20420,310.00
32,20352,320.00
33,20264,330.00
34,20216,340.00
35,20224,350.00
36,20244,360.00
37,20280,370.00
38,20316,380.00
39,20336,390.00
40,20352,400.00
41,20360,410.00
42,20372,420.00
43,20372,430.00
44,20388,440.00
45,20388,450.00
46,20392,460.00
47,20424,470.00
48,20424,480.00
49,20428,490.00
50,20392,500.00
51,20296,510.00
52,20228,520.00
53,20220,530.00
54,20220,540.00
55,20248,550.00
56,20296,560.00
57,20316,570.00
58,20316,580.00
59,20324,590.00
60,20336,600.00
61,20344,610.00
62,20344,620.00
63,20336,630.00
64,20332,640.00
65,20316,650.00
66,20304,660.00
67,20288,670.00
68,20244,680.00
69,20148,690.00
70,20068,700.00
71,20032,710.00
72,20032,720.00
73,20056,730.00
74,20092,740.00
75,20108,750.00
76,20124,760.00
77,20128,770.00
78,20140,780.00
79,20148,790.00
80,20144,800.00
81,20148,810.00
82,20160,820.00
83,20152,830.00
84,20148,840.00
85,20160,850.00
86,20168,860.00
87,20128,870.00
88,20064,880.00
89,20020,890.00
90,20008,900.00
91,20020,910.00
92,20044,920.00
93,20048,930.00
94,20040,940.00
95,20052,950.00
96,20060,960.00
97,20068,970.00
98,20080,980.00
99,20092,990.00
100,20092,1000.00
101,20092,1010.00
102,20096,1020.00
103,20100,1030.00
104,20096,1040.00
105,20084,1050.00
106,20020,1060.00
107,19948,1070.00
108,19936,1080.00
109,19936,1090.00
110,19960,1100.00
111,19992,1110.00
112,20024,1120.00
113,20032,1130.00
114,20056,1140.00
115,20076,1150.00
116,20096,1160.00
117,20124,1170.00
118,20140,1180.00
119,20164,1190.00
120,20196,1200.00
121,20204,1210.00
122,20200,1220.00
123,20236,1230.00
124,20232,1240.00
125,20140,1250.00
126,20084,1260.00
127,20084,1270.00
128,20084,1280.00
129,20108,1290.00
130,20132,1300.00
131,20144,1310.00
132,20160,1320.00
133,20152,1330.00
134,20156,1340.00
135,20156,1350.00
136,20160,1360.00
137,20144,1370.00
138,20144,1380.00
139,20132,1390.00
140,20124,1400.00
141,20108,1410.00
142,20104,1420.00
143,20084,1430.00
144,20000,1440.00
145,19932,1450.00
146,19916,1460.00
147,19904,1470.00
148,19920,1480.00
149,19956,1490.00
150,19964,1500.00
151,19960,1510.00
152,19976,1520.00
153,19984,1530.00
154,19992,1540.00
155,20008,1550.00
156,19996,1560.00
157,19996,1570.00
158,20004,1580.00
159,19992,1590.00
160,20008,1600.00
161,20020,1610.00
162,20008,1620.00
163,19964,1630.00
164,19892,1640.00
165,19880,1650.00
166,19888,1660.00
167,19900,1670.00
168,19932,1680.00
169,19944,1690.00
170,19948,1700.00
171,19960,1710.00
172,19952,1720.00
173,19956,1730.00
174,19948,1740.00
175,19952,1750.00
176,19956,1760.00
177,19940,1770.00
178,19932,1780.00
179,19940,1790.00
180,19944,1800.00
181,19924,1810.00
182,19888,1820.00
183,19816,1830.00
184,19792,1840.00
185,19788,1850.00
186,19796,1860.00
187,19824,1870.00
188,19836,1880.00
189,19820,1890.00
190,19824,1900.00
191,19828,1910.00
192,19832,1920.00
193,19832,1930.00
194,19844,1940.00
195,19848,1950.00
196,19848,1960.00
197,19844,1970.00
198,19848,1980.00
199,19840,1990.00
200,19840,2000.00
201,19804,2010.00
202,19736,2020.00
203,19688,2030.00
204,19684,2040.00
205,19684,2050.00
206,19720,2060.00
207,19724,2070.00
208,19720,2080.00
209,19728,2090.00
210,19724,2100.00
211,19736,2110.00
212,19756,2120.00
213,19768,2130.00
214,19776,2140.00
215,19780,2150.00
216,19780,2160.00
217,19788,2170.00
218,19792,2180.00
219,19792,2190.00
220,19772,2200.00
221,19696,2210.00
222,19660,2220.00
223,19668,2230.00
224,19668,2240.00
225,19696,2250.00
226,19716,2260.00
227,19720,2270.00
228,19740,2280.00
229,19744,2290.00
230,19752,2300.00
231,19756,2310.00
232,19748,2320.00
233,19752,2330.00
234,19748,2340.00
235,19748,2350.00
236,19748,2360.00
237,19740,2370.00
238,19740,2380.00
239,19728,2390.00
240,19660,2400.00
241,19604,2410.00
242,19600,2420.00
243,19596,2430.00
244,19612,2440.00
245,19640,2450.00
246,19636,2460.00
247,19636,2470.00
248,19636,2480.00
249,19644,2490.00
250,19648,2500.00
251,19636,2510.00
252,19640,2520.00
253,19640,2530.00
254,19632,2540.00
255,19628,2550.00
256,19632,2560.00
257,19644,2570.00
258,19636,2580.00
259,19596,2590.00
260,19540,2600.00
261,19524,2610.00
262,19516,2620.00
263,19536,2630.00
264,19572,2640.00
265,19584,2650.00
266,19592,2660.00
267,19612,2670.00
268,19616,2680.00
269,19612,2690.00
270,19604,2700.00
271,19608,2710.00
272,19616,2720.00
273,19612,2730.00
274,19612,2740.00
275,19616,2750.00
276,19632,2760.00
277,19640,2770.00
278,19616,2780.00
279,19572,2790.00
280,19540,2800.00
281,19536,2810.00
282,19564,2820.00
283,19592,2830.00
284,19608,2840.00
285,19624,2850.00
286,19628,2860.00
287,19628,2870.00
288,19640,2880.00
289,19656,2890.00
290,19652,2900.00
291,19660,2910.00
292,19672,2920.00
293,19664,2930.00
294,19668,2940.00
295,19672,2950.00
296,19672,2960.00
297,19648,2970.00
298,19596,2980.00
299,19544,2990.00
300,19524,3000.00
301,19532,3010.00
302,19540,3020.00
303,19568,3030.00
304,19580,3040.00
305,19576,3050.00
306,19596,3060.00
307,19608,3070.00
308,19604,3080.00
309,19616,3090.00
310,19620,3100.00
311,19624,3110.00
312,19628,3120.00
313,19616,3130.00
314,19620,3140.00
315,19628,3150.00
316,19624,3160.00
317,19588,3170.00
318,19520,3180.00
319,19488,3190.00
320,19484,3200.00
321,19480,3210.00
322,19504,3220.00
323,19516,3230.00
324,19528,3240.00
325,19532,3250.00
326,19540,3260.00
327,19540,3270.00
328,19556,3280.00
329,19552,3290.00
330,19552,3300.00
331,19560,3310.00
332,19560,3320.00
333,19544,3330.00
334,19540,3340.00
335,19544,3350.00
336,19516,3360.00
337,19448,3370.00
338,19408,3380.00
339,19384,3390.00
340,19372,3400.00
341,19400,3410.00
342,19428,3420.00
343,19424,3430.00
344,19444,3440.00
345,19456,3450.00
346,19464,3460.00
347,19464,3470.00
348,19472,3480.00
349,19464,3490.00
350,19464,3500.00
351,19464,3510.00
352,19464,3520.00
353,19480,3530.00
354,19480,3540.00
355,19464,3550.00
356,19444,3560.00
357,19396,3570.00
358,19352,3580.00
359,19340,3590.00
360,19368,3600.00
361,19404,3610.00
362,19404,3620.00
363,19412,3630.00
364,19428,3640.00
365,19436,3650.00
366,19436,3660.00
367,19440,3670.00
368,19440,3680.00
369,19444,3690.00
370,19432,3700.00
371,19448,3710.00
372,19440,3720.00
373,19436,3730.00
374,19480,3740.00
375,19468,3750.00
376,19400,3760.00
377,19356,3770.00
378,19348,3780.00
379,19356,3790.00
380,19368,3800.00
381,19400,3810.00
382,19408,3820.00
383,19396,3830.00
384,19400,3840.00
385,19416,3850.00
386,19416,3860.00
387,19400,3870.00
388,19416,3880.00
389,19424,3890.00
390,19420,3900.00
391,19420,3910.00
392,19424,3920.00
393,19444,3930.00
394,19436,3940.00
395,19396,3950.00
396,19336,3960.00
397,19324,3970.00
398,19300,3980.00
399,19284,3990.00
400,19304,4000.00
401,19332,4010.00
402,19328,4020.00
403,19316,4030.00
404,19320,4040.00
405,19344,4050.00
406,19360,4060.00
407,19348,4070.00
408,19352,4080.00
409,19376,4090.00
410,19380,4100.00
411,19368,4110.00
412,19376,4120.00
413,19384,4130.00
414,19364,4140.00
415,19296,4150.00
416,19252,4160.00
417,19248,4170.00
418,19260,4180.00
419,19272,4190.00
420,19280,4200.00
421,19304,4210.00
422,19316,4220.00
423,19320,4230.00
424,19320,4240.00
425,19320,4250.00
426,19336,4260.00
427,19348,4270.00
428,19336,4280.00
429,19332,4290.00
430,19360,4300.00
431,19376,4310.00
432,19344,4320.00
433,19296,4330.00
434,19256,4340.00
435,19228,4350.00
436,19200,4360.00
437,19216,4370.00
438,19252,4380.00
439,19256,4390.00
440,19240,4400.00
441,19280,4410.00
442,19304,4420.00
443,19268,4430.00
444,19272,4440.00
445,19316,4450.00
446,19312,4460.00
447,19264,4470.00
448,19272,4480.00
449,19280,4490.00
450,19272,4500.00
451,19264,4510.00
452,19220,4520.00
453,19184,4530.00
454,19164,4540.00
455,19140,4550.00
456,19148,4560.00
457,19196,4570.00
458,19196,4580.00
459,19172,4590.00
460,19204,4600.00
461,19260,4610.00
462,19252,4620.00
463,19220,4630.00
464,19244,4640.00
465,19244,4650.00
466,19232,4660.00
467,19240,4670.00
468,19228,4680.00
469,19216,4690.00
470,19216,4700.00
471,19160,4710.00
472,19096,4720.00
473,19088,4730.00
474,19124,4740.00
475,19152,4750.00
476,19160,4760.00
477,19152,4770.00
478,19168,4780.00
479,19188,4790.00
480,19208,4800.00
481,19204,4810.00
482,19200,4820.00
483,19224,4830.00
484,19232,4840.00
485,19200,4850.00
486,19200,4860.00
487,19244,4870.00
488,19244,4880.00
489,19156,4890.00
490,19108,4900.00
491,19120,4910.00
492,19108,4920.00
493,19100,4930.00
494,19128,4940.00
495,19148,4950.00
496,19128,4960.00
497,19116,4970.00
498,19128,4980.00
499,19136,4990.00
500,19128,5000.00
501,19144,5010.00
502,19144,5020.00
503,19140,5030.00
504,19160,5040.00
505,19176,5050.00
506,19136,5060.00
507,19076,5070.00
508,19032,5080.00
509,19032,5090.00
510,19036,5100.00
511,19028,5110.00
512,19044,5120.00
513,19068,5130.00
514,19056,5140.00
515,19060,5150.00
516,19072,5160.00
517,19088,5170.00
518,19084,5180.00
519,19088,5190.00
520,19104,5200.00
521,19120,5210.00
522,19128,5220.00
523,19144,5230.00
524,19116,5240.00
525,19032,5250.00
526,19000,5260.00
527,19000,5270.00
528,18976,5280.00
529,18984,5290.00
530,19020,5300.00
531,19032,5310.00
532,19024,5320.00
533,19032,5330.00
534,19048,5340.00
535,19060,5350.00
536,19056,5360.00
537,19072,5370.00
538,19096,5380.00
539,19100,5390.00
540,19092,5400.00
541,19096,5410.00
542,19080,5420.00
543,19008,5430.00
544,18944,5440.00
545,18936,5450.00
546,18948,5460.00
547,18952,5470.00
548,18968,5480.00
549,18980,5490.00
550,18972,5500.00
551,18984,5510.00
552,19008,5520.00
553,18992,5530.00
554,19000,5540.00
555,19032,5550.00
556,19024,5560.00
557,19012,5570.00
558,19032,5580.00
559,19052,5590.00
560,19020,5600.00
561,18932,5610.00
562,18884,5620.00
563,18900,5630.00
564,18876,5640.00
565,18868,5650.00
566,18932,5660.00
567,18952,5670.00
568,18920,5680.00
569,18940,5690.00
570,18976,5700.00
571,18980,5710.00
572,18984,5720.00
573,19004,5730.00
574,19012,5740.00
575,19012,5750.00
576,19028,5760.00
577,19028,5770.00
578,19016,5780.00
579,18960,5790.00
580,18896,5800.00
581,18884,5810.00
582,18888,5820.00
583,18892,5830.00
584,18928,5840.00
585,18948,5850.00
586,18952,5860.00
587,18956,5870.00
588,18976,5880.00
589,18988,5890.00
590,18992,5900.00
591,19004,5910.00
592,19012,5920.00
593,19008,5930.00
594,19016,5940.00
595,19024,5950.00
596,19012,5960.00
597,18972,5970.00
598,18912,5980.00
599,18888,5990.00
600,18888,6000.00
601,18904,6010.00
602,18932,6020.00
603,18936,6030.00
604,18948,6040.00
605,18976,6050.00
606,18972,6060.00
607,18972,6070.00
608,18988,6080.00
609,19016,6090.00
610,19000,6100.00
611,18996,6110.00
612,19012,6120.00
613,19016,6130.00
614,19024,6140.00
615,19004,6150.00
616,18932,6160.00
617,18904,6170.00
618,18912,6180.00
619,18900,6190.00
620,18936,6200.00
621,18956,6210.00
622,18948,6220.00
623,18972,6230.00
624,18980,6240.00
625,18980,6250.00
626,18988,6260.00
627,18996,6270.00
628,19000,6280.00
629,19000,6290.00
630,19000,6300.00
631,19012,6310.00
632,19020,6320.00
633,19032,6330.00
634,18968,6340.00
635,18912,6350.00
636,18936,6360.00
637,18928,6370.00
638,18928,6380.00
639,18960,6390.00
640,18976,6400.00
641,18980,6410.00
642,18992,6420.00
643,18988,6430.00
644,19004,6440.00
645,19016,6450.00
646,19016,6460.00
647,19016,6470.00
648,19020,6480.00
649,19024,6490.00
650,19056,6500.00
651,19048,6510.00
652,18996,6520.00
653,18944,6530.00
654,18940,6540.00
655,18940,6550.00
656,18940,6560.00
657,18968,6570.00
658,19004,6580.00
659,18984,6590.00
660,18976,6600.00
661,18992,6610.00
662,19008,6620.00
663,19008,6630.00
664,19012,6640.00
665,19016,6650.00
666,19028,6660.00
667,19040,6670.00
668,19036,6680.00
669,19044,6690.00
670,19044,6700.00
671,18976,6710.00
672,18936,6720.00
673,18952,6730.00
674,18968,6740.00
675,18976,6750.00
676,18972,6760.00
677,18992,6770.00
678,19000,6780.00
679,18976,6790.00
680,18992,6800.00
681,19012,6810.00
682,19012,6820.00
683,19012,6830.00
684,19000,6840.00
685,19032,6850.00
686,19044,6860.00
687,19036,6870.00
688,19028,6880.00
689,19000,6890.00
690,18952,6900.00
691,18932,6910.00
692,18952,6920.00
693,18952,6930.00
694,18960,6940.00
695,18960,6950.00
696,18968,6960.00
697,18968,6970.00
698,18960,6980.00
699,18988,6990.00
700,18992,7000.00
701,18988,7010.00
702,18996,7020.00
703,19008,7030.00
704,19016,7040.00
705,19016,7050.00
706,19024,7060.00
707,19004,7070.00
708,18948,7080.00
709,18916,7090.00
710,18920,7100.00
711,18940,7110.00
712,18952,7120.00
713,18940,7130.00
714,18956,7140.00
715,18980,7150.00
716,18972,7160.00
717,18968,7170.00
718,18992,7180.00
719,19004,7190.00
720,19000,7200.00
721,19004,7210.00
722,19020,7220.00
723,19032,7230.00
724,19024,7240.00
725,19000,7250.00
726,18948,7260.00
727,18920,7270.00
728,18916,7280.00
729,18916,7290.00
730,18936,7300.00
731,18940,7310.00
732,18936,7320.00
733,18936,7330.00
734,18948,7340.00
735,18964,7350.00
736,18972,7360.00
737,18964,7370.00
738,18976,7380.00
739,18992,7390.00
740,19008,7400.00
741,19004,7410.00
742,19004,7420.00
743,18988,7430.00
744,18920,7440.00
745,18932,7450.00
746,18920,7460.00
747,18884,7470.00
748,18892,7480.00
749,18924,7490.00
750,18932,7500.00
751,18920,7510.00
752,18924,7520.00
753,18944,7530.00
754,18964,7540.00
755,18948,7550.00
756,18940,7560.00
757,18984,7570.00
758,18980,7580.00
759,18956,7590.00
760,18980,7600.00
761,18980,7610.00
762,18916,7620.00
763,18856,7630.00
764,18852,7640.00
765,18884,7650.00
766,18920,7660.00
767,18912,7670.00
768,18900,7680.00
769,18900,7690.00
770,18908,7700.00
771,18960,7710.00
772,18972,7720.00
773,18956,7730.00
774,18968,7740.00
775,18968,7750.00
776,18968,7760.00
777,18980,7770.00
778,19008,7780.00
779,19000,7790.00
780,18944,7800.00
781,18920,7810.00
782,18916,7820.00
783,18920,7830.00
784,18944,7840.00
785,18952,7850.00
786,18976,7860.00
787,18984,7870.00
788,18952,7880.00
789,18972,7890.00
790,19020,7900.00
791,19008,7910.00
792,18972,7920.00
793,19004,7930.00
794,19032,7940.00
795,19000,7950.00
796,18992,7960.00
797,18980,7970.00
798,18936,7980.00
799,18920,7990.00
800,18916,8000.00
801,18920,8010.00
802,18932,8020.00
803,18968,8030.00
804,18972,8040.00
805,18948,8050.00
806,18972,8060.00
807,19020,8070.00
808,19000,8080.00
809,18996,8090.00
810,19012,8100.00
811,19028,8110.00
812,19028,8120.00
813,19024,8130.00
814,19032,8140.00
815,18992,8150.00
816,18936,8160.00
817,18896,8170.00
818,18896,8180.00
819,18904,8190.00
820,18912,8200.00
821,18896,8210.00
822,18896,8220.00
823,18904,8230.00
824,18908,8240.00
825,18896,8250.00
826,18880,8260.00
827,18896,8270.00
828,18904,8280.00
829,18884,8290.00
830,18880,8300.00
831,18884,8310.00
832,18868,8320.00
833,18804,8330.00
834,18756,8340.00
835,18756,8350.00
836,18744,8360.00
837,18752,8370.00
838,18800,8380.00
839,18796,8390.00
840,18780,8400.00
841,18772,8410.00
842,18756,8420.00
843,18760,8430.00
844,18796,8440.00
845,18772,8450.00
846,18748,8460.00
847,18776,8470.00
848,18792,8480.00
849,18776,8490.00
850,18728,8500.00
851,18696,8510.00
852,18676,8520.00
853,18668,8530.00
854,18668,8540.00
855,18700,8550.00
856,18724,8560.00
857,18732,8570.00
858,18728,8580.00
859,18732,8590.00
860,18752,8600.00
861,18768,8610.00
862,18768,8620.00
863,18780,8630.00
864,18776,8640.00
865,18796,8650.00
866,18804,8660.00
867,18788,8670.00
868,18728,8680.00
869,18684,8690.00
870,18668,8700.00
871,18668,8710.00
872,18688,8720.00
873,18692,8730.00
874,18704,8740.00
875,18728,8750.00
876,18720,8760.00
877,18720,8770.00
878,18732,8780.00
879,18736,8790.00
880,18720,8800.00
881,18728,8810.00
882,18748,8820.00
883,18740,8830.00
884,18744,8840.00
885,18704,8850.00
886,18636,8860.00
887,18620,8870.00
888,18604,8880.00
889,18592,8890.00
890,18620,8900.00
891,18656,8910.00
892,18652,8920.00
893,18664,8930.00
894,18672,8940.00
895,18680,8950.00
896,18700,8960.00
897,18700,8970.00
898,18704,8980.00
899,18712,8990.00
900,18720,9000.00
901,18724,9010.00
902,18724,9020.00
903,18648,9030.00
904,18592,9040.00
905,18592,9050.00
906,18584,9060.00
907,18584,9070.00
908,18616,9080.00
909,18644,9090.00
910,18648,9100.00
911,18652,9110.00
912,18664,9120.00
913,18680,9130.00
914,18692,9140.00
915,18688,9150.00
916,18696,9160.00
917,18720,9170.00
918,18712,9180.00
919,18704,9190.00
920,18704,9200.00
921,18640,9210.00
922,18588,9220.00
923,18580,9230.00
924,18584,9240.00
925,18600,9250.00
926,18632,9260.00
927,18640,9270.00
928,18648,9280.00
929,18680,9290.00
930,18676,9300.00
931,18684,9310.00
932,18700,9320.00
933,18704,9330.00
934,18704,9340.00
935,18720,9350.00
936,18716,9360.00
937,18712,9370.00
938,18712,9380.00
939,18644,9390.00
940,18592,9400.00
941,18596,9410.00
942,18592,9420.00
943,18620,9430.00
944,18640,9440.00
945,18640,9450.00
946,18672,9460.00
947,18684,9470.00
948,18680,9480.00
949,18680,9490.00
950,18708,9500.00
951,18700,9510.00
952,18696,9520.00
953,18704,9530.00
954,18712,9540.00
955,18708,9550.00
956,18672,9560.00
957,18608,9570.00
958,18592,9580.00
959,18584,9590.00
960,18568,9600.00
961,18612,9610.00
962,18644,9620.00
963,18644,9630.00
964,18652,9640.00
965,18688,9650.00
966,18700,9660.00
967,18684,9670.00
968,18700,9680.00
969,18728,9690.00
970,18728,9700.00
971,18716,9710.00
972,18724,9720.00
973,18744,9730.00
974,18708,9740.00
975,18632,9750.00
976,18608,9760.00
977,18624,9770.00
978,18608,9780.00
979,18624,9790.00
980,18672,9800.00
981,18692,9810.00
982,18672,9820.00
983,18676,9830.00
984,18716,9840.00
985,18720,9850.00
986,18716,9860.00
987,18716,9870.00
988,18744,9880.00
989,18728,9890.00
990,18712,9900.00
991,18736,9910.00
992,18712,9920.00
993,18624,9930.00
994,18600,9940.00
995,18620,9950.00
996,18612,9960.00
997,18620,9970.00
998,18664,9980.00
999,18700,9990.00
1000,18688,10000.00
1001,18684,10010.00
1002,18720,10020.00
1003,18760,10030.00
1004,18728,10040.00
1005,18732,10050.00
1006,18772,10060.00
1007,18756,10070.00
1008,18744,10080.00
1009,18772,10090.00
1010,18736,10100.00
1011,18660,10110.00
1012,18652,10120.00
1013,18660,10130.00
1014,18640,10140.00
1015,18676,10150.00
1016,18704,10160.00
1017,18696,10170.00
1018,18724,10180.00
1019,18720,10190.00
1020,18708,10200.00
1021,18752,10210.00
1022,18748,10220.00
1023,18716,10230.00
1024,18724,10240.00
1025,18756,10250.00
1026,18732,10260.00
1027,18720,10270.00
1028,18720,10280.00
1029,18664,10290.00
1030,18620,10300.00
1031,18628,10310.00
1032,18628,10320.00
1033,18656,10330.00
1034,18676,10340.00
1035,18680,10350.00
1036,18692,10360.00
1037,18688,10370.00
1038,18700,10380.00
1039,18724,10390.00
1040,18708,10400.00
1041,18708,10410.00
1042,18728,10420.00
1043,18744,10430.00
1044,18736,10440.00
1045,18748,10450.00
1046,18716,10460.00
1047,18664,10470.00
1048,18664,10480.00
1049,18632,10490.00
1050,18640,10500.00
1051,18700,10510.00
1052,18712,10520.00
1053,18688,10530.00
1054,18712,10540.00
1055,18744,10550.00
1056,18728,10560.00
1057,18716,10570.00
1058,18736,10580.00
1059,18752,10590.00
1060,18728,10600.00
1061,18720,10610.00
1062,18752,10620.00
1063,18756,10630.00
1064,18692,10640.00
1065,18636,10650.00
1066,18644,10660.00
1067,18632,10670.00
1068,18616,10680.00
1069,18648,10690.00
1070,18684,10700.00
1071,18684,10710.00
1072,18672,10720.00
1073,18696,10730.00
1074,18704,10740.00
1075,18688,10750.00
1076,18692,10760.00
1077,18712,10770.00
1078,18720,10780.00
1079,18712,10790.00
1080,18712,10800.00
1081,18736,10810.00
1082,18700,10820.00
1083,18620,10830.00
1084,18608,10840.00
1085,18644,10850.00
1086,18632,10860.00
1087,18640,10870.00
1088,18680,10880.00
1089,18696,10890.00
1090,18684,10900.00
1091,18688,10910.00
1092,18700,10920.00
1093,18720,10930.00
1094,18704,10940.00
1095,18704,10950.00
1096,18724,10960.00
1097,18720,10970.00
1098,18700,10980.00
1099,18712,10990.00
1100,18664,11000.00
1101,18604,11010.00
1102,18596,11020.00
1103,18604,11030.00
1104,18616,11040.00
1105,18628,11050.00
1106,18660,11060.00
1107,18660,11070.00
1108,18668,11080.00
1109,18660,11090.00
1110,18660,11100.00
1111,18684,11110.00
1112,18684,11120.00
1113,18684,11130.00
1114,18688,11140.00
1115,18700,11150.00
1116,18708,11160.00
1117,18700,11170.00
1118,18648,11180.00
1119,18596,11190.00
1120,18592,11200.00
1121,18588,11210.00
1122,18596,11220.00
1123,18620,11230.00
1124,18644,11240.00
1125,18648,11250.00
1126,18644,11260.00
1127,18648,11270.00
1128,18660,11280.00
1129,18684,11290.00
1130,18668,11300.00
1131,18672,11310.00
1132,18688,11320.00
1133,18704,11330.00
1134,18700,11340.00
1135,18684,11350.00
1136,18632,11360.00
1137,18620,11370.00
1138,18608,11380.00
1139,18604,11390.00
1140,18632,11400.00
1141,18668,11410.00
1142,18668,11420.00
1143,18664,11430.00
1144,18684,11440.00
1145,18692,11450.00
1146,18692,11460.00
1147,18696,11470.00
1148,18716,11480.00
1149,18716,11490.00
1150,18712,11500.00
1151,18728,11510.00
1152,18744,11520.00
1153,18720,11530.00
1154,18668,11540.00
1155,18648,11550.00
1156,18656,11560.00
1157,18668,11570.00
1158,18684,11580.00
1159,18696,11590.00
1160,18704,11600.00
1161,18712,11610.00
1162,18704,11620.00
1163,18708,11630.00
1164,18728,11640.00
1165,18724,11650.00
1166,18724,11660.00
1167,18728,11670.00
1168,18740,11680.00
1169,18744,11690.00
1170,18736,11700.00
1171,18704,11710.00
1172,18660,11720.00
1173,18660,11730.00
1174,18664,11740.00
1175,18660,11750.00
1176,18704,11760.00
1177,18716,11770.00
1178,18696,11780.00
1179,18692,11790.00
1180,18732,11800.00
1181,18732,11810.00
1182,18712,11820.00
1183,18728,11830.00
1184,18752,11840.00
1185,18744,11850.00
1186,18752,11860.00
1187,18768,11870.00
1188,18764,11880.00
1189,18712,11890.00
1190,18676,11900.00
1191,18676,11910.00
1192,18696,11920.00
1193,18700,11930.00
1194,18720,11940.00
1195,18740,11950.00
1196,18728,11960.00
1197,18728,11970.00
1198,18740,11980.00
1199,18748,11990.00
1200,18752,12000.00
1201,18752,12010.00
1202,18764,12020.00
1203,18768,12030.00
1204,18768,12040.00
1205,18768,12050.00
1206,18740,12060.00
1207,18676,12070.00
1208,18652,12080.00
1209,18656,12090.00
1210,18660,12100.00
1211,18684,12110.00
1212,18704,12120.00
1213,18700,12130.00
1214,18696,12140.00
1215,18712,12150.00
1216,18724,12160.00
1217,18728,12170.00
1218,18736,12180.00
1219,18748,12190.00
1220,18760,12200.00
1221,18768,12210.00
1222,18780,12220.00
1223,18772,12230.00
1224,18704,12240.00
1225,18672,12250.00
1226,18672,12260.00
1227,18660,12270.00
1228,18684,12280.00
1229,18724,12290.00
1230,18712,12300.00
1231,18696,12310.00
1232,18724,12320.00
1233,18744,12330.00
1234,18728,12340.00
1235,18728,12350.00
1236,18760,12360.00
1237,18760,12370.00
1238,18752,12380.00
1239,18768,12390.00
1240,18780,12400.00
1241,18728,12410.00
1242,18660,12420.00
1243,18644,12430.00
1244,18652,12440.00
1245,18656,12450.00
1246,18680,12460.00
1247,18700,12470.00
1248,18696,12480.00
1249,18696,12490.00
1250,18712,12500.00
1251,18720,12510.00
1252,18712,12520.00
1253,18728,12530.00
1254,18740,12540.00
1255,18732,12550.00
1256,18744,12560.00
1257,18752,12570.00
1258,18740,12580.00
1259,18652,12590.00
1260,18628,12600.00
1261,18640,12610.00
1262,18628,12620.00
1263,18664,12630.00
1264,18700,12640.00
1265,18736,12650.00
1266,18756,12660.00
1267,18696,12670.00
1268,18712,12680.00
1269,18852,12690.00
1270,18808,12700.00
1271,18776,12710.00
1272,18796,12720.00
1273,18820,12730.00
1274,18808,12740.00
1275,18696,12750.00
1276,18652,12760.00
1277,18600,12770.00
1278,18556,12780.00
1279,18544,12790.00
1280,18576,12800.00
1281,18568,12810.00
1282,18608,12820.00
1283,18628,12830.00
1284,18624,12840.00
1285,18668,12850.00
1286,18684,12860.00
1287,18684,12870.00
1288,18692,12880.00
1289,18712,12890.00
1290,18676,12900.00
1291,18668,12910.00
1292,18668,12920.00
1293,18580,12930.00
1294,18520,12940.00
1295,18456,12950.00
1296,18428,12960.00
1297,18416,12970.00
1298,18404,12980.00
1299,18412,12990.00
1300,18428,13000.00
1301,18428,13010.00
1302,18428,13020.00
1303,18424,13030.00
1304,18452,13040.00
1305,18452,13050.00
1306,18432,13060.00
1307,18436,13070.00
1308,18472,13080.00
1309,18460,13090.00
1310,18440,13100.00
1311,18432,13110.00
1312,18392,13120.00
1313,18332,13130.00
1314,18328,13140.00
1315,18348,13150.00
1316,18356,13160.00
1317,18356,13170.00
1318,18364,13180.00
1319,18364,13190.00
1320,18380,13200.00
1321,18368,13210.00
1322,18368,13220.00
1323,18396,13230.00
1324,18400,13240.00
1325,18380,13250.00
1326,18396,13260.00
1327,18416,13270.00
1328,18420,13280.00
1329,18380,13290.00
1330,18344,13300.00
1331,18336,13310.00
1332,18336,13320.00
1333,18348,13330.00
1334,18352,13340.00
1335,18364,13350.00
1336,18376,13360.00
1337,18380,13370.00
1338,18380,13380.00
1339,18376,13390.00
1340,18384,13400.00
1341,18388,13410.00
1342,18396,13420.00
1343,18400,13430.00
1344,18412,13440.00
1345,18424,13450.00
1346,18424,13460.00
1347,18404,13470.00
1348,18372,13480.00
1349,18356,13490.00
1350,18368,13500.00
1351,18388,13510.00
1352,18400,13520.00
1353,18408,13530.00
1354,18416,13540.00
1355,18428,13550.00
1356,18432,13560.00
1357,18436,13570.00
1358,18444,13580.00
1359,18464,13590.00
1360,18460,13600.00
1361,18468,13610.00
1362,18488,13620.00
1363,18484,13630.00
1364,18488,13640.00
1365,18456,13650.00
1366,18428,13660.00
1367,18400,13670.00
1368,18404,13680.00
1369,18408,13690.00
1370,18412,13700.00
1371,18416,13710.00
1372,18416,13720.00
1373,18416,13730.00
1374,18420,13740.00
1375,18416,13750.00
1376,18428,13760.00
1377,18440,13770.00
1378,18440,13780.00
1379,18444,13790.00
1380,18452,13800.00
1381,18468,13810.00
1382,18460,13820.00
1383,18452,13830.00
1384,18420,13840.00
1385,18392,13850.00
1386,18384,13860.00
1387,18392,13870.00
1388,18396,13880.00
1389,18416,13890.00
1390,18428,13900.00
1391,18424,13910.00
1392,18432,13920.00
1393,18444,13930.00
1394,18448,13940.00
1395,18456,13950.00
1396,18464,13960.00
1397,18464,13970.00
1398,18472,13980.00
1399,18484,13990.00
1400,18476,14000.00
1401,18476,14010.00
1402,18444,14020.00
1403,18408,14030.00
1404,18396,14040.00
1405,18392,14050.00
1406,18396,14060.00
1407,18416,14070.00
1408,18420,14080.00
1409,18424,14090.00
1410,18432,14100.00
1411,18436,14110.00
1412,18452,14120.00
1413,18460,14130.00
1414,18468,14140.00
1415,18476,14150.00
1416,18484,14160.00
1417,18488,14170.00
1418,18492,14180.00
1419,18492,14190.00
1420,18472,14200.00
1421,18436,14210.00
1422,18404,14220.00
1423,18400,14230.00
1424,18404,14240.00
1425,18420,14250.00
1426,18428,14260.00
1427,18428,14270.00
1428,18440,14280.00
1429,18444,14290.00
1430,18448,14300.00
1431,18452,14310.00
1432,18456,14320.00
1433,18464,14330.00
1434,18468,14340.00
1435,18464,14350.00
1436,18468,14360.00
1437,18468,14370.00
1438,18464,14380.00
1439,18424,14390.00
1440,18384,14400.00
1441,18380,14410.00
1442,18376,14420.00
1443,18392,14430.00
1444,18396,14440.00
1445,18404,14450.00
1446,18408,14460.00
1447,18416,14470.00
1448,18424,14480.00
1449,18436,14490.00
1450,18436,14500.00
1451,18440,14510.00
1452,18436,14520.00
1453,18444,14530.00
1454,18448,14540.00
1455,18444,14550.00
1456,18444,14560.00
1457,18416,14570.00
1458,18376,14580.00
1459,18356,14590.00
1460,18360,14600.00
1461,18364,14610.00
1462,18380,14620.00
1463,18392,14630.00
1464,18396,14640.00
1465,18412,14650.00
1466,18412,14660.00
1467,18420,14670.00
1468,18436,14680.00
1469,18432,14690.00
1470,18440,14700.00
1471,18448,14710.00
1472,18452,14720.00
1473,18452,14730.00
1474,18448,14740.00
1475,18428,14750.00
1476,18388,14760.00
1477,18376,14770.00
1478,18360,14780.00
1479,18364,14790.00
1480,18388,14800.00
1481,18404,14810.00
1482,18412,14820.00
1483,18420,14830.00
1484,18436,14840.00
1485,18440,14850.00
1486,18456,14860.00
1487,18456,14870.00
1488,18464,14880.00
1489,18464,14890.00
1490,18468,14900.00
1491,18468,14910.00
1492,18472,14920.00
1493,18476,14930.00
1494,18452,14940.00
1495,18420,14950.00
1496,18408,14960.00
1497,18420,14970.00
1498,18432,14980.00
1499,18448,14990.00
1500,18456,15000.00
1501,18476,15010.00
1502,18488,15020.00
1503,18484,15030.00
1504,18496,15040.00
1505,18504,15050.00
1506,18500,15060.00
1507,18504,15070.00
1508,18500,15080.00
1509,18496,15090.00
1510,18496,15100.00
1511,18504,15110.00
1512,18488,15120.00
1513,18456,15130.00
1514,18436,15140.00
1515,18436,15150.00
1516,18444,15160.00
1517,18452,15170.00
1518,18476,15180.00
1519,18480,15190.00
1520,18484,15200.00
1521,18492,15210.00
1522,18492,15220.00
1523,18500,15230.00
1524,18500,15240.00
1525,18500,15250.00
1526,18496,15260.00
1527,18500,15270.00
1528,18504,15280.00
1529,18504,15290.00
1530,18496,15300.00
1531,18472,15310.00
1532,18440,15320.00
1533,18428,15330.00
1534,18432,15340.00
1535,18448,15350.00
1536,18464,15360.00
1537,18468,15370.00
1538,18480,15380.00
1539,18476,15390.00
1540,18484,15400.00
1541,18488,15410.00
1542,18480,15420.00
1543,18484,15430.00
1544,18484,15440.00
1545,18480,15450.00
1546,18484,15460.00
1547,18484,15470.00
1548,18484,15480.00
1549,18456,15490.00
1550,18424,15500.00
1551,18408,15510.00
1552,18408,15520.00
1553,18420,15530.00
1554,18440,15540.00
1555,18452,15550.00
1556,18456,15560.00
1557,18460,15570.00
1558,18460,15580.00
1559,18472,15590.00
1560,18464,15600.00
1561,18460,15610.00
1562,18464,15620.00
1563,18460,15630.00
1564,18468,15640.00
1565,18464,15650.00
1566,18464,15660.00
1567,18436,15670.00
1568,18408,15680.00
1569,18384,15690.00
1570,18388,15700.00
1571,18404,15710.00
1572,18416,15720.00
1573,18432,15730.00
1574,18432,15740.00
1575,18436,15750.00
1576,18440,15760.00
1577,18448,15770.00
1578,18440,15780.00
1579,18444,15790.00
1580,18444,15800.00
1581,18448,15810.00
1582,18448,15820.00
1583,18452,15830.00
1584,18456,15840.00
1585,18428,15850.00
1586,18388,15860.00
1587,18368,15870.00
1588,18372,15880.00
1589,18380,15890.00
1590,18404,15900.00
1591,18416,15910.00
1592,18424,15920.00
1593,18432,15930.00
1594,18440,15940.00
1595,18436,15950.00
1596,18440,15960.00
1597,18440,15970.00
1598,18440,15980.00
1599,18444,15990.00
1600,18444,16000.00
1601,18448,16010.00
1602,18460,16020.00
1603,18440,16030.00
1604,18404,16040.00
1605,18380,16050.00
1606,18380,16060.00
1607,18396,16070.00
1608,18408,16080.00
1609,18428,16090.00
1610,18440,16100.00
1611,18436,16110.00
1612,18444,16120.00
1613,18440,16130.00
1614,18444,16140.00
1615,18444,16150.00
1616,18448,16160.00
1617,18452,16170.00
1618,18448,16180.00
1619,18456,16190.00
1620,18460,16200.00
1621,18452,16210.00
1622,18416,16220.00
1623,18388,16230.00
1624,18392,16240.00
1625,18396,16250.00
1626,18412,16260.00
1627,18432,16270.00
1628,18436,16280.00
1629,18448,16290.00
1630,18448,16300.00
1631,18456,16310.00
1632,18452,16320.00
1633,18456,16330.00
1634,18460,16340.00
1635,18460,16350.00
1636,18464,16360.00
1637,18476,16370.00
1638,18476,16380.00
1639,18480,16390.00
1640,18448,16400.00
1641,18412,16410.00
1642,18408,16420.00
1643,18416,16430.00
1644,18448,16440.00
1645,18476,16450.00
1646,18484,16460.00
1647,18492,16470.00
1648,18496,16480.00
1649,18492,16490.00
1650,18496,16500.00
1651,18496,16510.00
1652,18500,16520.00
1653,18504,16530.00
1654,18500,16540.00
1655,18504,16550.00
1656,18512,16560.00
1657,18504,16570.00
1658,18484,16580.00
1659,18448,16590.00
1660,18428,16600.00
1661,18436,16610.00
1662,18436,16620.00
1663,18460,16630.00
1664,18476,16640.00
1665,18472,16650.00
1666,18468,16660.00
1667,18476,16670.00
1668,18476,16680.00
1669,18480,16690.00
1670,18488,16700.00
1671,18484,16710.00
1672,18492,16720.00
1673,18496,16730.00
1674,18508,16740.00
1675,18500,16750.00
1676,18496,16760.00
1677,18460,16770.00
1678,18424,16780.00
1679,18424,16790.00
1680,18432,16800.00
1681,18444,16810.00
1682,18464,16820.00
1683,18468,16830.00
1684,18464,16840.00
1685,18476,16850.00
1686,18472,16860.00
1687,18476,16870.00
1688,18480,16880.00
1689,18476,16890.00
1690,18484,16900.00
1691,18488,16910.00
1692,18492,16920.00
1693,18496,16930.00
1694,18496,16940.00
1695,18468,16950.00
1696,18428,16960.00
1697,18412,16970.00
1698,18412,16980.00
1699,18424,16990.00
1700,18436,17000.00
1701,18440,17010.00
1702,18440,17020.00
1703,18444,17030.00
1704,18448,17040.00
1705,18444,17050.00
1706,18444,17060.00
1707,18440,17070.00
1708,18452,17080.00
1709,18452,17090.00
1710,18448,17100.00
1711,18456,17110.00
1712,18460,17120.00
1713,18452,17130.00
1714,18416,17140.00
1715,18376,17150.00
1716,18380,17160.00
1717,18384,17170.00
1718,18392,17180.00
1719,18400,17190.00
1720,18408,17200.00
1721,18408,17210.00
1722,18412,17220.00
1723,18412,17230.00
1724,18424,17240.00
1725,18432,17250.00
1726,18436,17260.00
1727,18444,17270.00
1728,18448,17280.00
1729,18460,17290.00
1730,18456,17300.00
1731,18468,17310.00
1732,18440,17320.00
1733,18400,17330.00
1734,18400,17340.00
1735,18404,17350.00
1736,18412,17360.00
1737,18432,17370.00
1738,18436,17380.00
1739,18444,17390.00
1740,18444,17400.00
1741,18452,17410.00
1742,18468,17420.00
1743,18468,17430.00
1744,18468,17440.00
1745,18480,17450.00
1746,18484,17460.00
1747,18484,17470.00
1748,18496,17480.00
1749,18492,17490.00
1750,18492,17500.00
1751,18472,17510.00
1752,18428,17520.00
1753,18408,17530.00
1754,18400,17540.00
1755,18404,17550.00
1756,18424,17560.00
1757,18432,17570.00
1758,18444,17580.00
1759,18444,17590.00
1760,18452,17600.00
1761,18468,17610.00
1762,18464,17620.00
1763,18476,17630.00
1764,18480,17640.00
1765,18484,17650.00
1766,18492,17660.00
1767,18496,17670.00
1768,18504,17680.00
1769,18504,17690.00
1770,18492,17700.00
1771,18452,17710.00
1772,18420,17720.00
1773,18408,17730.00
1774,18412,17740.00
1775,18420,17750.00
1776,18440,17760.00
1777,18456,17770.00
1778,18464,17780.00
1779,18480,17790.00
1780,18480,17800.00
1781,18488,17810.00
1782,18504,17820.00
1783,18512,17830.00
1784,18512,17840.00
1785,18520,17850.00
1786,18532,17860.00
1787,18536,17870.00
1788,18540,17880.00
1789,18532,17890.00
1790,18512,17900.00
1791,18476,17910.00
1792,18460,17920.00
1793,18456,17930.00
1794,18468,17940.00
1795,18480,17950.00
1796,18496,17960.00
1797,18504,17970.00
1798,18508,17980.00
1799,18528,17990.00
1800,18528,18000.00
1801,18540,18010.00
1802,18544,18020.00
1803,18552,18030.00
1804,18556,18040.00
1805,18556,18050.00
1806,18560,18060.00
1807,18556,18070.00
1808,18556,18080.00
1809,18556,18090.00
1810,18536,18100.00
1811,18512,18110.00
1812,18508,18120.00
1813,18516,18130.00
1814,18520,18140.00
1815,18528,18150.00
1816,18540,18160.00
1817,18544,18170.00
1818,18552,18180.00
1819,18552,18190.00
1820,18560,18200.00
1821,18560,18210.00
1822,18564,18220.00
1823,18572,18230.00
1824,18560,18240.00
1825,18560,18250.00
1826,18556,18260.00
1827,18560,18270.00
1828,18556,18280.00
1829,18540,18290.00
1830,18520,18300.00
1831,18504,18310.00
1832,18520,18320.00
1833,18520,18330.00
1834,18528,18340.00
1835,18528,18350.00
1836,18532,18360.00
1837,18536,18370.00
1838,18536,18380.00
1839,18536,18390.00
1840,18532,18400.00
1841,18536,18410.00
1842,18540,18420.00
1843,18536,18430.00
1844,18536,18440.00
1845,18540,18450.00
1846,18536,18460.00
1847,18536,18470.00
1848,18524,18480.00
1849,18504,18490.00
1850,18500,18500.00
1851,18508,18510.00
1852,18512,18520.00
1853,18524,18530.00
1854,18528,18540.00
1855,18544,18550.00
1856,18548,18560.00
1857,18548,18570.00
1858,18564,18580.00
1859,18564,18590.00
1860,18560,18600.00
1861,18564,18610.00
1862,18552,18620.00
1863,18544,18630.00
1864,18548,18640.00
1865,18540,18650.00
1866,18540,18660.00
1867,18524,18670.00
1868,18516,18680.00
1869,18508,18690.00
1870,18500,18700.00
1871,18504,18710.00
1872,18512,18720.00
1873,18516,18730.00
1874,18524,18740.00
1875,18524,18750.00
1876,18520,18760.00
1877,18524,18770.00
1878,18524,18780.00
1879,18520,18790.00
1880,18516,18800.00
1881,18516,18810.00
1882,18500,18820.00
1883,18516,18830.00
1884,18492,18840.00
1885,18508,18850.00
1886,18492,18860.00
1887,18488,18870.00
1888,18468,18880.00
1889,18468,18890.00
1890,18476,18900.00
1891,18488,18910.00
1892,18488,18920.00
1893,18488,18930.00
1894,18488,18940.00
1895,18488,18950.00
1896,18488,18960.00
1897,18484,18970.00
1898,18480,18980.00
1899,18484,18990.00
1900,18476,19000.00
1901,18472,19010.00
1902,18476,19020.00
1903,18476,19030.00
1904,18480,19040.00
1905,18480,19050.00
1906,18464,19060.00
1907,18456,19070.00
1908,18464,19080.00
1909,18464,19090.00
1910,18472,19100.00
1911,18468,19110.00
1912,18472,19120.00
1913,18476,19130.00
1914,18472,19140.00
1915,18468,19150.00
1916,18464,19160.00
1917,18468,19170.00
1918,18468,19180.00
1919,18456,19190.00
1920,18456,19200.00
1921,18460,19210.00
1922,18456,19220.00
1923,18460,19230.00
1924,18452,19240.00
1925,18440,19250.00
1926,18440,19260.00
1927,18440,19270.00
1928,18444,19280.00
1929,18460,19290.00
1930,18456,19300.00
1931,18468,19310.00
1932,18456,19320.00
1933,18464,19330.00
1934,18460,19340.00
1935,18456,19350.00
1936,18456,19360.00
1937,18456,19370.00
1938,18460,19380.00
1939,18468,19390.00
1940,18468,19400.00
1941,18468,19410.00
1942,18476,19420.00
1943,18456,19430.00
1944,18444,19440.00
1945,18436,19450.00
1946,18452,19460.00
1947,18456,19470.00
1948,18464,19480.00
1949,18460,19490.00
1950,18456,19500.00
1951,18456,19510.00
1952,18464,19520.00
1953,18460,19530.00
1954,18456,19540.00
1955,18460,19550.00
1956,18464,19560.00
1957,18464,19570.00
1958,18472,19580.00
1959,18468,19590.00
1960,18472,19600.00
1961,18464,19610.00
1962,18448,19620.00
1963,18440,19630.00
1964,18440,19640.00
1965,18440,19650.00
1966,18444,19660.00
1967,18440,19670.00
1968,18440,19680.00
1969,18444,19690.00
1970,18444,19700.00
1971,18444,19710.00
1972,18448,19720.00
1973,18448,19730.00
1974,18452,19740.00
1975,18460,19750.00
1976,18456,19760.00
1977,18464,19770.00
1978,18464,19780.00
1979,18468,19790.00
1980,18460,19800.00
1981,18444,19810.00
1982,18440,19820.00
1983,18448,19830.00
1984,18452,19840.00
1985,18452,19850.00
1986,18448,19860.00
1987,18460,19870.00
1988,18456,19880.00
1989,18452,19890.00
1990,18456,19900.00
1991,18464,19910.00
1992,18468,19920.00
1993,18472,19930.00
1994,18476,19940.00
1995,18476,19950.00
1996,18476,19960.00
1997,18484,19970.00
1998,18480,19980.00
1999,18460,19990.00
2000,18452,20000.00
2001,18452,20010.00
2002,18448,20020.00
2003,18452,20030.00
2004,18448,20040.00
2005,18460,20050.00
2006,18456,20060.00
2007,18452,20070.00
2008,18456,20080.00
2009,18460,20090.00
2010,18464,20100.00
2011,18468,20110.00
2012,18468,20120.00
2013,18472,20130.00
2014,18480,20140.00
2015,18480,20150.00
2016,18480,20160.00
2017,18468,20170.00
2018,18452,20180.00
2019,18452,20190.00
2020,18456,20200.00
2021,18452,20210.00
2022,18460,20220.00
2023,18460,20230.00
2024,18464,20240.00
2025,18468,20250.00
2026,18468,20260.00
2027,18472,20270.00
2028,18472,20280.00
2029,18480,20290.00
2030,18480,20300.00
2031,18484,20310.00
2032,18488,20320.00
2033,18484,20330.00
2034,18488,20340.00
2035,18476,20350.00
2036,18456,20360.00
2037,18444,20370.00
2038,18444,20380.00
2039,18448,20390.00
2040,18456,20400.00
2041,18468,20410.00
2042,18468,20420.00
2043,18472,20430.00
2044,18480,20440.00
2045,18488,20450.00
2046,18488,20460.00
2047,18488,20470.00
2048,18496,20480.00
2049,18504,20490.00
2050,18504,20500.00
2051,18504,20510.00
2052,18512,20520.00
2053,18508,20530.00
2054,18492,20540.00
2055,18472,20550.00
2056,18468,20560.00
2057,18464,20570.00
2058,18476,20580.00
2059,18488,20590.00
2060,18488,20600.00
2061,18492,20610.00
2062,18492,20620.00
2063,18500,20630.00
2064,18504,20640.00
2065,18504,20650.00
2066,18508,20660.00
2067,18512,20670.00
2068,18520,20680.00
2069,18520,20690.00
2070,18524,20700.00
2071,18528,20710.00
2072,18520,20720.00
2073,18500,20730.00
2074,18484,20740.00
2075,18484,20750.00
2076,18484,20760.00
2077,18492,20770.00
2078,18500,20780.00
2079,18504,20790.00
2080,18508,20800.00
2081,18504,20810.00
2082,18512,20820.00
2083,18516,20830.00
2084,18516,20840.00
2085,18524,20850.00
2086,18524,20860.00
2087,18528,20870.00
2088,18524,20880.00
2089,18528,20890.00
2090,18532,20900.00
2091,18516,20910.00
2092,18492,20920.00
2093,18480,20930.00
2094,18476,20940.00
2095,18480,20950.00
2096,18492,20960.00
2097,18496,20970.00
2098,18496,20980.00
2099,18496,20990.00
2100,18508,21000.00
2101,18504,21010.00
2102,18508,21020.00
2103,18516,21030.00
2104,18516,21040.00
2105,18524,21050.00
2106,18520,21060.00
2107,18512,21070.00
2108,18516,21080.00
2109,18512,21090.00
2110,18484,21100.00
2111,18464,21110.00
2112,18448,21120.00
2113,18456,21130.00
2114,18468,21140.00
2115,18472,21150.00
2116,18480,21160.00
2117,18468,21170.00
2118,18476,21180.00
2119,18480,21190.00
2120,18476,21200.00
2121,18484,21210.00
2122,18476,21220.00
2123,18480,21230.00
2124,18488,21240.00
2125,18480,21250.00
2126,18480,21260.00
2127,18480,21270.00
2128,18456,21280.00
2129,18440,21290.00
2130,18412,21300.00
2131,18396,21310.00
2132,18388,21320.00
2133,18400,21330.00
2134,18400,21340.00
2135,18404,21350.00
2136,18420,21360.00
2137,18412,21370.00
2138,18408,21380.00
2139,18432,21390.00
2140,18444,21400.00
2141,18428,21410.00
2142,18436,21420.00
2143,18448,21430.00
2144,18456,21440.00
2145,18440,21450.00
2146,18452,21460.00
2147,18452,21470.00
2148,18420,21480.00
2149,18404,21490.00
2150,18408,21500.00
2151,18420,21510.00
2152,18424,21520.00
2153,18436,21530.00
2154,18456,21540.00
2155,18468,21550.00
2156,18468,21560.00
2157,18468,21570.00
2158,18484,21580.00
2159,18484,21590.00
2160,18472,21600.00
2161,18484,21610.00
2162,18492,21620.00
2163,18484,21630.00
2164,18480,21640.00
2165,18484,21650.00
2166,18464,21660.00
2167,18424,21670.00
2168,18416,21680.00
2169,18432,21690.00
2170,18436,21700.00
2171,18436,21710.00
2172,18464,21720.00
2173,18472,21730.00
2174,18460,21740.00
2175,18464,21750.00
2176,18480,21760.00
2177,18468,21770.00
2178,18484,21780.00
2179,18476,21790.00
2180,18468,21800.00
2181,18476,21810.00
2182,18472,21820.00
2183,18468,21830.00
2184,18456,21840.00
2185,18432,21850.00
2186,18424,21860.00
2187,18420,21870.00
2188,18428,21880.00
2189,18444,21890.00
2190,18456,21900.00
2191,18460,21910.00
2192,18460,21920.00
2193,18468,21930.00
2194,18476,21940.00
2195,18464,21950.00
2196,18460,21960.00
2197,18452,21970.00
2198,18444,21980.00
2199,18444,21990.00
2200,18448,22000.00
2201,18452,22010.00
2202,18436,22020.00
2203,18408,22030.00
2204,18400,22040.00
2205,18400,22050.00
2206,18388,22060.00
2207,18380,22070.00
2208,18404,22080.00
2209,18396,22090.00
2210,18408,22100.00
2211,18404,22110.00
2212,18404,22120.00
2213,18404,22130.00
2214,18404,22140.00
2215,18412,22150.00
2216,18412,22160.00
2217,18412,22170.00
2218,18428,22180.00
2219,18440,22190.00
2220,18440,22200.00
2221,18416,22210.00
2222,18400,22220.00
2223,18372,22230.00
2224,18388,22240.00
2225,18368,22250.00
2226,18376,22260.00
2227,18392,22270.00
2228,18376,22280.00
2229,18360,22290.00
2230,18364,22300.00
2231,18372,22310.00
2232,18360,22320.00
2233,18352,22330.00
2234,18376,22340.00
2235,18368,22350.00
2236,18364,22360.00
2237,18384,22370.00
2238,18360,22380.00
2239,18344,22390.00
2240,18344,22400.00
2241,18340,22410.00
2242,18344,22420.00
2243,18320,22430.00
2244,18336,22440.00
2245,18352,22450.00
2246,18344,22460.00
2247,18316,22470.00
2248,18296,22480.00
2249,18304,22490.00
2250,18324,22500.00
2251,18356,22510.00
2252,18364,22520.00
2253,18360,22530.00
2254,18396,22540.00
2255,18392,22550.00
2256,18384,22560.00
2257,18424,22570.00
2258,18436,22580.00
2259,18368,22590.00
2260,18352,22600.00
2261,18376,22610.00
2262,18404,22620.00
2263,18408,22630.00
2264,18444,22640.00
2265,18436,22650.00
2266,18504,22660.00
2267,18508,22670.00
2268,18512,22680.00
2269,18548,22690.00
2270,18544,22700.00
2271,18572,22710.00
2272,18584,22720.00
2273,18612,22730.00
2274,18596,22740.00
2275,18608,22750.00
2276,18576,22760.00
2277,18588,22770.00
2278,18596,22780.00
2279,18556,22790.00
2280,18556,22800.00
2281,18580,22810.00
2282,18664,22820.00
2283,18672,22830.00
2284,18684,22840.00
2285,18732,22850.00
2286,18756,22860.00
2287,18784,22870.00
2288,18848,22880.00
2289,18900,22890.00
2290,18904,22900.00
2291,18912,22910.00
2292,18920,22920.00
2293,18976,22930.00
2294,18996,22940.00
2295,18936,22950.00
2296,18892,22960.00
2297,18852,22970.00
2298,18872,22980.00
2299,18872,22990.00
2300,18928,23000.00
2301,18980,23010.00
2302,18976,23020.00
2303,19000,23030.00
2304,19036,23040.00
2305,19104,23050.00
2306,19136,23060.00
2307,19144,23070.00
2308,19188,23080.00
2309,19232,23090.00
2310,19244,23100.00
2311,19268,23110.00
2312,19268,23120.00
2313,19224,23130.00
2314,19184,23140.00
2315,19112,23150.00
2316,19072,23160.00
2317,19088,23170.00
2318,19108,23180.00
2319,19124,23190.00
2320,19160,23200.00
2321,19176,23210.00
2322,19192,23220.00
2323,19220,23230.00
2324,19252,23240.00
2325,19276,23250.00
2326,19192,23260.00
2327,19236,23270.00
2328,19280,23280.00
2329,19236,23290.00
2330,19324,23300.00
2331,19220,23310.00
2332,19112,23320.00
2333,19028,23330.00
2334,19004,23340.00
2335,18972,23350.00
2336,18980,23360.00
2337,19076,23370.00
2338,19116,23380.00
2339,19072,23390.00
2340,19092,23400.00
2341,19124,23410.00
2342,19216,23420.00
2343,19316,23430.00
2344,19392,23440.00
2345,19384,23450.00
2346,19348,23460.00
2347,19332,23470.00
2348,19308,23480.00
2349,19240,23490.00
2350,19144,23500.00
2351,19064,23510.00
2352,19072,23520.00
2353,19112,23530.00
2354,19104,23540.00
2355,19068,23550.00
2356,19080,23560.00
2357,19104,23570.00
2358,19144,23580.00
2359,19156,23590.00
2360,19204,23600.00
2361,19256,23610.00
2362,19284,23620.00
2363,19260,23630.00
2364,19292,23640.00
2365,19332,23650.00
2366,19356,23660.00
2367,19360,23670.00
2368,19288,23680.00
2369,19216,23690.00
2370,19156,23700.00
2371,19084,23710.00
2372,19060,23720.00
2373,19052,23730.00
2374,19076,23740.00
2375,19104,23750.00
2376,19116,23760.00
2377,19132,23770.00
2378,19152,23780.00
2379,19172,23790.00
2380,19196,23800.00
2381,19224,23810.00
2382,19232,23820.00
2383,19248,23830.00
2384,19268,23840.00
2385,19272,23850.00
2386,19284,23860.00
2387,19212,23870.00
2388,19132,23880.00
2389,19052,23890.00
2390,19008,23900.00
2391,18976,23910.00
2392,18984,23920.00
2393,19020,23930.00
2394,19044,23940.00
2395,19068,23950.00
2396,19076,23960.00
2397,19112,23970.00
2398,19128,23980.00
2399,19172,23990.00
2400,19188,24000.00
2401,19204,24010.00
2402,19240,24020.00
2403,19260,24030.00
2404,19276,24040.00
2405,19276,24050.00
2406,19224,24060.00
2407,19152,24070.00
2408,19080,24080.00
2409,19032,24090.00
2410,19016,24100.00
2411,19048,24110.00
2412,19076,24120.00
2413,19092,24130.00
2414,19104,24140.00
2415,19136,24150.00
2416,19160,24160.00
2417,19180,24170.00
2418,19204,24180.00
2419,19228,24190.00
2420,19252,24200.00
2421,19288,24210.00
2422,19328,24220.00
2423,19336,24230.00
2424,19344,24240.00
2425,19304,24250.00
2426,19224,24260.00
2427,19136,24270.00
2428,19064,24280.00
2429,19020,24290.00
2430,19020,24300.00
2431,19048,24310.00
2432,19084,24320.00
2433,19104,24330.00
2434,19132,24340.00
2435,19156,24350.00
2436,19180,24360.00
2437,19204,24370.00
2438,19220,24380.00
2439,19240,24390.00
2440,19268,24400.00
2441,19280,24410.00
2442,19292,24420.00
2443,19316,24430.00
2444,19308,24440.00
2445,19228,24450.00
2446,19132,24460.00
2447,19052,24470.00
2448,19000,24480.00
2449,18976,24490.00
2450,18980,24500.00
2451,19008,24510.00
2452,19036,24520.00
2453,19068,24530.00
2454,19096,24540.00
2455,19116,24550.00
2456,19144,24560.00
2457,19176,24570.00
2458,19204,24580.00
2459,19228,24590.00
2460,19268,24600.00
2461,19300,24610.00
2462,19316,24620.00
2463,19332,24630.00
2464,19328,24640.00
2465,19272,24650.00
2466,19204,24660.00
2467,19156,24670.00
2468,19120,24680.00
2469,19108,24690.00
2470,19144,24700.00
2471,19188,24710.00
2472,19220,24720.00
2473,19260,24730.00
2474,19296,24740.00
2475,19336,24750.00
2476,19380,24760.00
2477,19420,24770.00
2478,19464,24780.00
2479,19504,24790.00
2480,19540,24800.00
2481,19572,24810.00
2482,19600,24820.00
2483,19632,24830.00
2484,19620,24840.00
2485,19564,24850.00
2486,19484,24860.00
2487,19408,24870.00
2488,19368,24880.00
2489,19364,24890.00
2490,19408,24900.00
2491,19468,24910.00
2492,19504,24920.00
2493,19556,24930.00
2494,19580,24940.00
2495,19640,24950.00
2496,19724,24960.00
2497,19772,24970.00
2498,19904,24980.00
2499,20000,24990.00
2500,20040,25000.00
2501,20012,25010.00
2502,19852,25020.00
2503,19708,25030.00
2504,19616,25040.00
2505,19532,25050.00
2506,19464,25060.00
2507,19436,25070.00
2508,19416,25080.00
2509,19428,25090.00
2510,19488,25100.00
2511,19708,25110.00
2512,19804,25120.00
2513,19352,25130.00
2514,18976,25140.00
2515,18984,25150.00
2516,19040,25160.00
2517,19056,25170.00
2518,19116,25180.00
2519,19108,25190.00
2520,19064,25200.00
2521,19112,25210.00
2522,19124,25220.00
2523,19124,25230.00
2524,19192,25240.00
2525,19192,25250.00
2526,19080,25260.00
2527,18948,25270.00
2528,18892,25280.00
2529,18944,25290.00
2530,18968,25300.00
2531,18956,25310.00
2532,18916,25320.00
2533,18904,25330.00
2534,18932,25340.00
2535,18960,25350.00
2536,18968,25360.00
2537,19024,25370.00
2538,19040,25380.00
2539,19044,25390.00
2540,19052,25400.00
2541,19048,25410.00
2542,19108,25420.00
2543,19160,25430.00
2544,19132,25440.00
2545,19080,25450.00
2546,19112,25460.00
2547,19044,25470.00
2548,18924,25480.00
2549,18848,25490.00
2550,18828,25500.00
2551,18784,25510.00
2552,18796,25520.00
2553,18912,25530.00
2554,18956,25540.00
2555,18940,25550.00
2556,18872,25560.00
2557,18856,25570.00
2558,18904,25580.00
2559,18916,25590.00
2560,18892,25600.00
2561,19020,25610.00
2562,19072,25620.00
2563,19072,25630.00
2564,19056,25640.00
2565,19120,25650.00
2566,19216,25660.00
2567,19336,25670.00
2568,19380,25680.00
2569,19348,25690.00
2570,19356,25700.00
2571,19484,25710.00
2572,19700,25720.00
2573,19872,25730.00
2574,20016,25740.00
2575,20088,25750.00
2576,20120,25760.00
2577,20136,25770.00
2578,20160,25780.00
2579,20176,25790.00
2580,20200,25800.00
2581,20240,25810.00
2582,20264,25820.00
2583,20276,25830.00
2584,20280,25840.00
2585,20308,25850.00
2586,20344,25860.00
2587,20324,25870.00
2588,20228,25880.00
2589,20112,25890.00
2590,20024,25900.00
2591,19988,25910.00
2592,19980,25920.00
2593,20004,25930.00
2594,20020,25940.00
2595,20028,25950.00
2596,20040,25960.00
2597,20068,25970.00
2598,20084,25980.00
2599,20104,25990.00
2600,20120,26000.00
2601,20132,26010.00
2602,20144,26020.00
2603,20160,26030.00
2604,20176,26040.00
2605,20168,26050.00
2606,20152,26060.00
2607,20144,26070.00
2608,20088,26080.00
2609,19992,26090.00
2610,19904,26100.00
2611,19856,26110.00
2612,19844,26120.00
2613,19884,26130.00
2614,19928,26140.00
2615,19968,26150.00
2616,20000,26160.00
2617,20012,26170.00
2618,20024,26180.00
2619,20024,26190.00
2620,20024,26200.00
2621,20036,26210.00
2622,20044,26220.00
2623,20064,26230.00
2624,20076,26240.00
2625,20084,26250.00
2626,20092,26260.00
2627,20108,26270.00
2628,20104,26280.00
2629,20028,26290.00
2630,19920,26300.00
2631,19836,26310.00
2632,19796,26320.00
2633,19780,26330.00
2634,19804,26340.00
2635,19852,26350.00
2636,19896,26360.00
2637,19928,26370.00
2638,19948,26380.00
2639,19960,26390.00
2640,19980,26400.00
2641,19984,26410.00
2642,19996,26420.00
2643,20012,26430.00
2644,20032,26440.00
2645,20048,26450.00
2646,20056,26460.00
2647,20064,26470.00
2648,20108,26480.00
2649,20152,26490.00
2650,20092,26500.00
2651,19988,26510.00
2652,19908,26520.00
2653,19880,26530.00
2654,19880,26540.00
2655,19904,26550.00
2656,19920,26560.00
2657,19924,26570.00
2658,19948,26580.00
2659,19976,26590.00
2660,19996,26600.00
2661,20020,26610.00
2662,20044,26620.00
2663,20064,26630.00
2664,20088,26640.00
2665,20120,26650.00
2666,20148,26660.00
2667,20160,26670.00
2668,20176,26680.00
2669,20212,26690.00
2670,20220,26700.00
2671,20144,26710.00
2672,20016,26720.00
2673,19920,26730.00
2674,19856,26740.00
2675,19832,26750.00
2676,19852,26760.00
2677,19880,26770.00
2678,19892,26780.00
2679,19916,26790.00
2680,19940,26800.00
2681,19956,26810.00
2682,19980,26820.00
2683,20008,26830.00
2684,20052,26840.00
2685,20096,26850.00
2686,20120,26860.00
2687,20140,26870.00
2688,20160,26880.00
2689,20184,26890.00
2690,20212,26900.00
2691,20224,26910.00
2692,20144,26920.00
2693,20036,26930.00
2694,19956,26940.00
2695,19924,26950.00
2696,19936,26960.00
2697,19972,26970.00
2698,20004,26980.00
2699,20036,26990.00
2700,20072,27000.00
2701,20116,27010.00
2702,20160,27020.00
2703,20188,27030.00
2704,20220,27040.00
2705,20264,27050.00
2706,20308,27060.00
2707,20328,27070.00
2708,20352,27080.00
2709,20372,27090.00
2710,20384,27100.00
2711,20392,27110.00
2712,20384,27120.00
2713,20320,27130.00
2714,20208,27140.00
2715,20124,27150.00
2716,20068,27160.00
2717,20036,27170.00
2718,20048,27180.00
2719,20096,27190.00
2720,20132,27200.00
2721,20164,27210.00
2722,20196,27220.00
2723,20220,27230.00
2724,20228,27240.00
2725,20240,27250.00
2726,20252,27260.00
2727,20260,27270.00
2728,20268,27280.00
2729,20280,27290.00
2730,20292,27300.00
2731,20300,27310.00
2732,20312,27320.00
2733,20332,27330.00
2734,20292,27340.00
2735,20176,27350.00
2736,20064,27360.00
2737,20004,27370.00
2738,19988,27380.00
2739,20008,27390.00
2740,20060,27400.00
2741,20096,27410.00
2742,20112,27420.00
2743,20140,27430.00
2744,20172,27440.00
2745,20196,27450.00
2746,20204,27460.00
2747,20208,27470.00
2748,20220,27480.00
2749,20236,27490.00
2750,20248,27500.00
2751,20272,27510.00
2752,20292,27520.00
2753,20304,27530.00
2754,20316,27540.00
2755,20284,27550.00
2756,20180,27560.00
2757,20080,27570.00
2758,20008,27580.00
2759,19960,27590.00
2760,19952,27600.00
2761,19980,27610.00
2762,20008,27620.00
2763,20028,27630.00
2764,20044,27640.00
2765,20052,27650.00
2766,20068,27660.00
2767,20096,27670.00
2768,20116,27680.00
2769,20136,27690.00
2770,20148,27700.00
2771,20152,27710.00
2772,20160,27720.00
2773,20156,27730.00
2774,20152,27740.00
2775,20164,27750.00
2776,20176,27760.00
2777,20180,27770.00
2778,20192,27780.00
2779,20204,27790.00
2780,20236,27800.00
2781,20224,27810.00
2782,20140,27820.00
2783,20036,27830.00
2784,19968,27840.00
2785,19932,27850.00
2786,19932,27860.00
2787,19964,27870.00
2788,19996,27880.00
2789,20028,27890.00
2790,20056,27900.00
2791,20068,27910.00
2792,20080,27920.00
2793,20096,27930.00
2794,20116,27940.00
2795,20128,27950.00
2796,20140,27960.00
2797,20168,27970.00
2798,20196,27980.00
2799,20216,27990.00
2800,20228,28000.00
2801,20232,28010.00
2802,20248,28020.00
2803,20272,28030.00
2804,20268,28040.00
2805,20212,28050.00
2806,20104,28060.00
2807,20008,28070.00
2808,19940,28080.00
2809,19900,28090.00
2810,19896,28100.00
2811,19932,28110.00
2812,19972,28120.00
2813,19992,28130.00
2814,20008,28140.00
2815,20028,28150.00
2816,20048,28160.00
2817,20080,28170.00
2818,20096,28180.00
2819,20112,28190.00
2820,20144,28200.00
2821,20180,28210.00
2822,20204,28220.00
2823,20224,28230.00
2824,20228,28240.00
2825,20220,28250.00
2826,20208,28260.00
2827,20140,28270.00
2828,20036,28280.00
2829,19952,28290.00
2830,19900,28300.00
2831,19864,28310.00
2832,19860,28320.00
2833,19888,28330.00
2834,19920,28340.00
2835,19948,28350.00
2836,19960,28360.00
2837,19948,28370.00
2838,19948,28380.00
2839,19956,28390.00
2840,19972,28400.00
2841,19992,28410.00
2842,20004,28420.00
2843,20012,28430.00
2844,20008,28440.00
2845,20024,28450.00
2846,20036,28460.00
2847,20056,28470.00
2848,20072,28480.00
2849,20020,28490.00
2850,19904,28500.00
2851,19804,28510.00
2852,19748,28520.00
2853,19720,28530.00
2854,19716,28540.00
2855,19732,28550.00
2856,19756,28560.00
2857,19780,28570.00
2858,19796,28580.00
2859,19808,28590.00
2860,19820,28600.00
2861,19844,28610.00
2862,19860,28620.00
2863,19872,28630.00
2864,19884,28640.00
2865,19896,28650.00
2866,19912,28660.00
2867,19932,28670.00
2868,19948,28680.00
2869,19952,28690.00
2870,19920,28700.00
2871,19832,28710.00
2872,19732,28720.00
2873,19668,28730.00
2874,19628,28740.00
2875,19620,28750.00
2876,19644,28760.00
2877,19668,28770.00
2878,19688,28780.00
2879,19716,28790.00
2880,19752,28800.00
2881,19776,28810.00
2882,19788,28820.00
2883,19796,28830.00
2884,19804,28840.00
2885,19796,28850.00
2886,19772,28860.00
2887,19744,28870.00
2888,19724,28880.00
2889,19684,28890.00
2890,19652,28900.00
2891,19648,28910.00
2892,19620,28920.00
2893,19508,28930.00
2894,19368,28940.00
2895,19280,28950.00
2896,19260,28960.00
2897,19264,28970.00
2898,19284,28980.00
2899,19296,28990.00
2900,19308,29000.00
2901,19364,29010.00
2902,19400,29020.00
2903,19436,29030.00
2904,19460,29040.00
2905,19496,29050.00
2906,19516,29060.00
2907,19524,29070.00
2908,19552,29080.00
2909,19588,29090.00
2910,19616,29100.00
2911,19628,29110.00
2912,19648,29120.00
2913,19656,29130.00
2914,19604,29140.00
2915,19528,29150.00
2916,19468,29160.00
2917,19444,29170.00
2918,19444,29180.00
2919,19472,29190.00
2920,19512,29200.00
2921,19564,29210.00
2922,19620,29220.00
2923,19672,29230.00
2924,19712,29240.00
2925,19756,29250.00
2926,19768,29260.00
2927,19768,29270.00
2928,19772,29280.00
2929,19764,29290.00
2930,19776,29300.00
2931,19800,29310.00
2932,19816,29320.00
2933,19832,29330.00
2934,19860,29340.00
2935,19840,29350.00
2936,19776,29360.00
2937,19716,29370.00
2938,19684,29380.00
2939,19676,29390.00
2940,19696,29400.00
2941,19716,29410.00
2942,19720,29420.00
2943,19728,29430.00
2944,19732,29440.00
2945,19752,29450.00
2946,19776,29460.00
2947,19792,29470.00
2948,19816,29480.00
2949,19852,29490.00
2950,19868,29500.00
2951,19888,29510.00
2952,19924,29520.00
2953,19964,29530.00
2954,19996,29540.00
2955,20016,29550.00
2956,19988,29560.00
2957,19904,29570.00
2958,19828,29580.00
2959,19792,29590.00
2960,19796,29600.00
2961,19832,29610.00
2962,19860,29620.00
2963,19868,29630.00
2964,19892,29640.00
2965,19920,29650.00
2966,19944,29660.00
2967,19968,29670.00
2968,19992,29680.00
2969,20004,29690.00
2970,20012,29700.00
2971,20012,29710.00
2972,19996,29720.00
2973,19996,29730.00
2974,20000,29740.00
2975,19996,29750.00
2976,19952,29760.00
2977,19848,29770.00
2978,19740,29780.00
2979,19672,29790.00
2980,19632,29800.00
2981,19616,29810.00
2982,19604,29820.00
2983,19608,29830.00
2984,19628,29840.00
2985,19640,29850.00
2986,19656,29860.00
2987,19672,29870.00
2988,19684,29880.00
2989,19700,29890.00
2990,19700,29900.00
2991,19696,29910.00
2992,19712,29920.00
2993,19736,29930.00
2994,19764,29940.00
2995,19780,29950.00
2996,19764,29960.00
2997,19684,29970.00
2998,19592,29980.00
2999,19524,29990.00
3000,19492,30000.00
3001,19476,30010.00
3002,19492,30020.00
3003,19520,30030.00
3004,19520,30040.00
3005,19520,30050.00
3006,19548,30060.00
3007,19592,30070.00
3008,19624,30080.00
3009,19640,30090.00
3010,19652,30100.00
3011,19672,30110.00
3012,19692,30120.00
3013,19720,30130.00
3014,19732,30140.00
3015,19740,30150.00
3016,19740,30160.00
3017,19684,30170.00
3018,19580,30180.00
3019,19488,30190.00
3020,19428,30200.00
3021,19404,30210.00
3022,19404,30220.00
3023,19440,30230.00
3024,19480,30240.00
3025,19500,30250.00
3026,19524,30260.00
3027,19544,30270.00
3028,19568,30280.00
3029,19584,30290.00
3030,19608,30300.00
3031,19632,30310.00
3032,19652,30320.00
3033,19660,30330.00
3034,19668,30340.00
3035,19676,30350.00
3036,19700,30360.00
3037,19704,30370.00
3038,19636,30380.00
3039,19544,30390.00
3040,19468,30400.00
3041,19424,30410.00
3042,19408,30420.00
3043,19424,30430.00
3044,19460,30440.00
3045,19480,30450.00
3046,19500,30460.00
3047,19516,30470.00
3048,19524,30480.00
3049,19524,30490.00
3050,19532,30500.00
3051,19540,30510.00
3052,19564,30520.00
3053,19576,30530.00
3054,19584,30540.00
3055,19580,30550.00
3056,19588,30560.00
3057,19596,30570.00
3058,19560,30580.00
3059,19460,30590.00
3060,19384,30600.00
3061,19352,30610.00
3062,19344,30620.00
3063,19352,30630.00
3064,19376,30640.00
3065,19416,30650.00
3066,19456,30660.00
3067,19504,30670.00
3068,19528,30680.00
3069,19548,30690.00
3070,19564,30700.00
3071,19568,30710.00
3072,19576,30720.00
3073,19592,30730.00
3074,19588,30740.00
3075,19592,30750.00
3076,19600,30760.00
3077,19608,30770.00
3078,19576,30780.00
3079,19488,30790.00
3080,19388,30800.00
3081,19324,30810.00
3082,19292,30820.00
3083,19284,30830.00
3084,19304,30840.00
3085,19344,30850.00
3086,19376,30860.00
3087,19384,30870.00
3088,19392,30880.00
3089,19404,30890.00
3090,19404,30900.00
3091,19400,30910.00
3092,19392,30920.00
3093,19384,30930.00
3094,19392,30940.00
3095,19404,30950.00
3096,19436,30960.00
3097,19476,30970.00
3098,19500,30980.00
3099,19476,30990.00
3100,19392,31000.00
3101,19304,31010.00
3102,19244,31020.00
3103,19224,31030.00
3104,19224,31040.00
3105,19248,31050.00
3106,19292,31060.00
3107,19316,31070.00
3108,19328,31080.00
3109,19344,31090.00
3110,19364,31100.00
3111,19388,31110.00
3112,19412,31120.00
3113,19432,31130.00
3114,19448,31140.00
3115,19472,31150.00
3116,19500,31160.00
3117,19528,31170.00
3118,19552,31180.00
3119,19568,31190.00
3120,19532,31200.00
3121,19440,31210.00
3122,19356,31220.00
3123,19296,31230.00
3124,19276,31240.00
3125,19280,31250.00
3126,19308,31260.00
3127,19328,31270.00
3128,19356,31280.00
3129,19376,31290.00
3130,19380,31300.00
3131,19392,31310.00
3132,19416,31320.00
3133,19428,31330.00
3134,19428,31340.00
3135,19440,31350.00
3136,19452,31360.00
3137,19472,31370.00
3138,19488,31380.00
3139,19492,31390.00
3140,19476,31400.00
3141,19392,31410.00
3142,19296,31420.00
3143,19228,31430.00
3144,19188,31440.00
3145,19172,31450.00
3146,19184,31460.00
3147,19212,31470.00
3148,19240,31480.00
3149,19260,31490.00
3150,19280,31500.00
3151,19292,31510.00
3152,19300,31520.00
3153,19320,31530.00
3154,19344,31540.00
3155,19368,31550.00
3156,19380,31560.00
3157,19388,31570.00
3158,19412,31580.00
3159,19420,31590.00
3160,19424,31600.00
3161,19400,31610.00
3162,19308,31620.00
3163,19208,31630.00
3164,19148,31640.00
3165,19116,31650.00
3166,19112,31660.00
3167,19136,31670.00
3168,19172,31680.00
3169,19192,31690.00
3170,19212,31700.00
3171,19228,31710.00
3172,19248,31720.00
3173,19272,31730.00
3174,19296,31740.00
3175,19328,31750.00
3176,19348,31760.00
3177,19368,31770.00
3178,19380,31780.00
3179,19388,31790.00
3180,19396,31800.00
3181,19388,31810.00
3182,19352,31820.00
3183,19272,31830.00
3184,19188,31840.00
3185,19132,31850.00
3186,19116,31860.00
3187,19132,31870.00
3188,19168,31880.00
3189,19200,31890.00
3190,19224,31900.00
3191,19232,31910.00
3192,19252,31920.00
3193,19280,31930.00
3194,19308,31940.00
3195,19324,31950.00
3196,19352,31960.00
3197,19372,31970.00
3198,19376,31980.00
3199,19396,31990.00
3200,19412,32000.00
3201,19428,32010.00
3202,19412,32020.00
3203,19336,32030.00
3204,19236,32040.00
3205,19160,32050.00
3206,19116,32060.00
3207,19108,32070.00
3208,19120,32080.00
3209,19152,32090.00
3210,19180,32100.00
3211,19200,32110.00
3212,19228,32120.00
3213,19240,32130.00
3214,19260,32140.00
3215,19288,32150.00
3216,19324,32160.00
3217,19340,32170.00
3218,19348,32180.00
3219,19368,32190.00
3220,19392,32200.00
3221,19416,32210.00
3222,19424,32220.00
3223,19416,32230.00
3224,19336,32240.00
3225,19244,32250.00
3226,19184,32260.00
3227,19148,32270.00
3228,19148,32280.00
3229,19176,32290.00
3230,19212,32300.00
3231,19232,32310.00
3232,19264,32320.00
3233,19292,32330.00
3234,19316,32340.00
3235,19336,32350.00
3236,19348,32360.00
3237,19372,32370.00
3238,19388,32380.00
3239,19404,32390.00
3240,19416,32400.00
3241,19436,32410.00
3242,19448,32420.00
3243,19460,32430.00
3244,19424,32440.00
3245,19336,32450.00
3246,19240,32460.00
3247,19180,32470.00
3248,19148,32480.00
3249,19144,32490.00
3250,19180,32500.00
3251,19216,32510.00
3252,19228,32520.00
3253,19244,32530.00
3254,19272,32540.00
3255,19288,32550.00
3256,19300,32560.00
3257,19308,32570.00
3258,19332,32580.00
3259,19360,32590.00
3260,19376,32600.00
3261,19388,32610.00
3262,19408,32620.00
3263,19440,32630.00
3264,19456,32640.00
3265,19432,32650.00
3266,19328,32660.00
3267,19236,32670.00
3268,19188,32680.00
3269,19172,32690.00
3270,19180,32700.00
3271,19208,32710.00
3272,19248,32720.00
3273,19268,32730.00
3274,19284,32740.00
3275,19292,32750.00
3276,19312,32760.00
3277,19332,32770.00
3278,19364,32780.00
3279,19384,32790.00
3280,19416,32800.00
3281,19448,32810.00
3282,19468,32820.00
3283,19480,32830.00
3284,19500,32840.00
3285,19496,32850.00
3286,19424,32860.00
3287,19328,32870.00
3288,19264,32880.00
3289,19232,32890.00
3290,19224,32900.00
3291,19248,32910.00
3292,19288,32920.00
3293,19320,32930.00
3294,19340,32940.00
3295,19364,32950.00
3296,19384,32960.00
3297,19408,32970.00
3298,19428,32980.00
3299,19444,32990.00
3300,19464,33000.00
3301,19488,33010.00
3302,19504,33020.00
3303,19520,33030.00
3304,19540,33040.00
3305,19552,33050.00
3306,19524,33060.00
3307,19428,33070.00
3308,19324,33080.00
3309,19256,33090.00
3310,19220,33100.00
3311,19220,33110.00
3312,19248,33120.00
3313,19288,33130.00
3314,19328,33140.00
3315,19356,33150.00
3316,19384,33160.00
3317,19408,33170.00
3318,19436,33180.00
3319,19456,33190.00
3320,19476,33200.00
3321,19496,33210.00
3322,19516,33220.00
3323,19536,33230.00
3324,19552,33240.00
3325,19564,33250.00
3326,19572,33260.00
3327,19532,33270.00
3328,19436,33280.00
3329,19348,33290.00
3330,19284,33300.00
3331,19256,33310.00
3332,19268,33320.00
3333,19304,33330.00
3334,19352,33340.00
3335,19384,33350.00
3336,19412,33360.00
3337,19444,33370.00
3338,19472,33380.00
3339,19492,33390.00
3340,19520,33400.00
3341,19544,33410.00
3342,19568,33420.00
3343,19584,33430.00
3344,19596,33440.00
3345,19612,33450.00
3346,19628,33460.00
3347,19644,33470.00
3348,19600,33480.00
3349,19492,33490.00
3350,19396,33500.00
3351,19332,33510.00
3352,19308,33520.00
3353,19312,33530.00
3354,19348,33540.00
3355,19388,33550.00
3356,19420,33560.00
3357,19440,33570.00
3358,19456,33580.00
3359,19472,33590.00
3360,19484,33600.00
3361,19504,33610.00
3362,19520,33620.00
3363,19528,33630.00
3364,19544,33640.00
3365,19560,33650.00
3366,19572,33660.00
3367,19584,33670.00
3368,19584,33680.00
3369,19536,33690.00
3370,19436,33700.00
3371,19344,33710.00
3372,19292,33720.00
3373,19272,33730.00
3374,19292,33740.00
3375,19320,33750.00
3376,19352,33760.00
3377,19384,33770.00
3378,19408,33780.00
3379,19420,33790.00
3380,19436,33800.00
3381,19452,33810.00
3382,19468,33820.00
3383,19488,33830.00
3384,19500,33840.00
3385,19520,33850.00
3386,19540,33860.00
3387,19556,33870.00
3388,19572,33880.00
3389,19596,33890.00
3390,19572,33900.00
3391,19476,33910.00
3392,19376,33920.00
3393,19320,33930.00
3394,19292,33940.00
3395,19292,33950.00
3396,19328,33960.00
3397,19364,33970.00
3398,19400,33980.00
3399,19412,33990.00
3400,19432,34000.00
3401,19452,34010.00
3402,19468,34020.00
3403,19492,34030.00
3404,19508,34040.00
3405,19532,34050.00
3406,19548,34060.00
3407,19572,34070.00
3408,19588,34080.00
3409,19608,34090.00
3410,19628,34100.00
3411,19640,34110.00
3412,19660,34120.00
3413,19680,34130.00
3414,19656,34140.00
3415,19560,34150.00
3416,19460,34160.00
3417,19388,34170.00
3418,19348,34180.00
3419,19344,34190.00
3420,19368,34200.00
3421,19412,34210.00
3422,19440,34220.00
3423,19464,34230.00
3424,19484,34240.00
3425,19508,34250.00
3426,19532,34260.00
3427,19556,34270.00
3428,19584,34280.00
3429,19600,34290.00
3430,19620,34300.00
3431,19640,34310.00
3432,19660,34320.00
3433,19680,34330.00
3434,19692,34340.00
3435,19700,34350.00
3436,19692,34360.00
3437,19624,34370.00
3438,19516,34380.00
3439,19432,34390.00
3440,19384,34400.00
3441,19368,34410.00
3442,19392,34420.00
3443,19436,34430.00
3444,19472,34440.00
3445,19492,34450.00
3446,19512,34460.00
3447,19528,34470.00
3448,19544,34480.00
3449,19568,34490.00
3450,19584,34500.00
3451,19600,34510.00
3452,19612,34520.00
3453,19628,34530.00
3454,19644,34540.00
3455,19660,34550.00
3456,19680,34560.00
3457,19688,34570.00
3458,19672,34580.00
3459,19592,34590.00
3460,19496,34600.00
3461,19412,34610.00
3462,19376,34620.00
3463,19384,34630.00
3464,19424,34640.00
3465,19468,34650.00
3466,19508,34660.00
3467,19536,34670.00
3468,19568,34680.00
3469,19596,34690.00
3470,19620,34700.00
3471,19648,34710.00
3472,19680,34720.00
3473,19712,34730.00
3474,19736,34740.00
3475,19752,34750.00
3476,19764,34760.00
3477,19788,34770.00
3478,19800,34780.00
3479,19820,34790.00
3480,19816,34800.00
3481,19736,34810.00
3482,19628,34820.00
3483,19552,34830.00
3484,19500,34840.00
3485,19484,34850.00
3486,19500,34860.00
3487,19540,34870.00
3488,19576,34880.00
3489,19596,34890.00
3490,19620,34900.00
3491,19652,34910.00
3492,19676,34920.00
3493,19688,34930.00
3494,19708,34940.00
3495,19732,34950.00
3496,19752,34960.00
3497,19780,34970.00
3498,19796,34980.00
3499,19808,34990.00
3500,19836,35000.00
3501,19860,35010.00
3502,19864,35020.00
3503,19784,35030.00
3504,19664,35040.00
3505,19572,35050.00
3506,19524,35060.00
3507,19496,35070.00
3508,19500,35080.00
3509,19528,35090.00
3510,19564,35100.00
3511,19592,35110.00
3512,19616,35120.00
3513,19632,35130.00
3514,19652,35140.00
3515,19680,35150.00
3516,19688,35160.00
3517,19708,35170.00
3518,19728,35180.00
3519,19752,35190.00
3520,19760,35200.00
3521,19764,35210.00
3522,19780,35220.00
3523,19796,35230.00
3524,19772,35240.00
3525,19680,35250.00
3526,19576,35260.00
3527,19488,35270.00
3528,19440,35280.00
3529,19420,35290.00
3530,19436,35300.00
3531,19476,35310.00
3532,19512,35320.00
3533,19544,35330.00
3534,19576,35340.00
3535,19604,35350.00
3536,19628,35360.00
3537,19648,35370.00
3538,19672,35380.00
3539,19692,35390.00
3540,19712,35400.00
3541,19728,35410.00
3542,19744,35420.00
3543,19768,35430.00
3544,19784,35440.00
3545,19800,35450.00
3546,19776,35460.00
3547,19688,35470.00
3548,19576,35480.00
3549,19508,35490.00
3550,19472,35500.00
3551,19468,35510.00
3552,19492,35520.00
3553,19532,35530.00
3554,19568,35540.00
3555,19592,35550.00
3556,19620,35560.00
3557,19644,35570.00
3558,19660,35580.00
3559,19680,35590.00
3560,19700,35600.00
3561,19712,35610.00
3562,19728,35620.00
3563,19744,35630.00
3564,19752,35640.00
3565,19760,35650.00
3566,19768,35660.00
3567,19780,35670.00
3568,19760,35680.00
3569,19676,35690.00
3570,19576,35700.00
3571,19504,35710.00
3572,19472,35720.00
3573,19460,35730.00
3574,19480,35740.00
3575,19512,35750.00
3576,19536,35760.00
3577,19556,35770.00
3578,19580,35780.00
3579,19592,35790.00
3580,19608,35800.00
3581,19620,35810.00
3582,19640,35820.00
3583,19668,35830.00
3584,19688,35840.00
3585,19712,35850.00
3586,19732,35860.00
3587,19752,35870.00
3588,19780,35880.00
3589,19784,35890.00
3590,19732,35900.00
3591,19624,35910.00
3592,19532,35920.00
3593,19476,35930.00
3594,19452,35940.00
3595,19460,35950.00
3596,19492,35960.00
3597,19524,35970.00
3598,19544,35980.00
3599,19560,35990.00
3600,19572,36000.00
3601,19580,36010.00
3602,19592,36020.00
3603,19616,36030.00
3604,19644,36040.00
3605,19660,36050.00
3606,19672,36060.00
3607,19688,36070.00
3608,19708,36080.00
3609,19720,36090.00
3610,19724,36100.00
3611,19704,36110.00
3612,19612,36120.00
3613,19508,36130.00
3614,19428,36140.00
3615,19388,36150.00
3616,19376,36160.00
3617,19384,36170.00
3618,19420,36180.00
3619,19452,36190.00
3620,19472,36200.00
3621,19480,36210.00
3622,19500,36220.00
3623,19524,36230.00
3624,19544,36240.00
3625,19564,36250.00
3626,19584,36260.00
3627,19608,36270.00
3628,19628,36280.00
3629,19648,36290.00
3630,19664,36300.00
3631,19680,36310.00
3632,19680,36320.00
3633,19612,36330.00
3634,19508,36340.00
3635,19428,36350.00
3636,19372,36360.00
3637,19360,36370.00
3638,19372,36380.00
3639,19400,36390.00
3640,19428,36400.00
3641,19440,36410.00
3642,19456,36420.00
3643,19480,36430.00
3644,19492,36440.00
3645,19500,36450.00
3646,19512,36460.00
3647,19528,36470.00
3648,19544,36480.00
3649,19556,36490.00
3650,19560,36500.00
3651,19580,36510.00
3652,19604,36520.00
3653,19620,36530.00
3654,19564,36540.00
3655,19456,36550.00
3656,19368,36560.00
3657,19312,36570.00
3658,19284,36580.00
3659,19284,36590.00
3660,19308,36600.00
3661,19348,36610.00
3662,19376,36620.00
3663,19400,36630.00
3664,19416,36640.00
3665,19436,36650.00
3666,19456,36660.00
3667,19476,36670.00
3668,19492,36680.00
3669,19504,36690.00
3670,19524,36700.00
3671,19536,36710.00
3672,19548,36720.00
3673,19556,36730.00
3674,19572,36740.00
3675,19556,36750.00
3676,19464,36760.00
3677,19372,36770.00
3678,19308,36780.00
3679,19268,36790.00
3680,19260,36800.00
3681,19284,36810.00
3682,19320,36820.00
3683,19368,36830.00
3684,19424,36840.00
3685,19456,36850.00
3686,19488,36860.00
3687,19512,36870.00
3688,19520,36880.00
3689,19528,36890.00
3690,19544,36900.00
3691,19536,36910.00
3692,19536,36920.00
3693,19540,36930.00
3694,19556,36940.00
3695,19568,36950.00
3696,19540,36960.00
3697,19460,36970.00
3698,19396,36980.00
3699,19364,36990.00
3700,19336,37000.00
3701,19352,37010.00
3702,19404,37020.00
3703,19452,37030.00
3704,19484,37040.00
3705,19508,37050.00
3706,19524,37060.00
3707,19552,37070.00
3708,19592,37080.00
3709,19616,37090.00
3710,19620,37100.00
3711,19624,37110.00
3712,19624,37120.00
3713,19628,37130.00
3714,19636,37140.00
3715,19652,37150.00
3716,19652,37160.00
3717,19600,37170.00
3718,19488,37180.00
3719,19392,37190.00
3720,19344,37200.00
3721,19320,37210.00
3722,19308,37220.00
3723,19344,37230.00
3724,19376,37240.00
3725,19392,37250.00
3726,19404,37260.00
3727,19412,37270.00
3728,19428,37280.00
3729,19444,37290.00
3730,19452,37300.00
3731,19460,37310.00
3732,19472,37320.00
3733,19480,37330.00
3734,19484,37340.00
3735,19496,37350.00
3736,19516,37360.00
3737,19508,37370.00
3738,19432,37380.00
3739,19328,37390.00
3740,19256,37400.00
3741,19220,37410.00
3742,19204,37420.00
3743,19216,37430.00
3744,19252,37440.00
3745,19276,37450.00
3746,19300,37460.00
3747,19312,37470.00
3748,19340,37480.00
3749,19372,37490.00
3750,19408,37500.00
3751,19428,37510.00
3752,19452,37520.00
3753,19480,37530.00
3754,19504,37540.00
3755,19520,37550.00
3756,19520,37560.00
3757,19516,37570.00
3758,19496,37580.00
3759,19408,37590.00
3760,19300,37600.00
3761,19220,37610.00
3762,19188,37620.00
3763,19184,37630.00
3764,19212,37640.00
3765,19256,37650.00
3766,19292,37660.00
3767,19324,37670.00
3768,19360,37680.00
3769,19392,37690.00
3770,19420,37700.00
3771,19444,37710.00
3772,19460,37720.00
3773,19492,37730.00
3774,19520,37740.00
3775,19544,37750.00
3776,19572,37760.00
3777,19592,37770.00
3778,19616,37780.00
3779,19616,37790.00
3780,19548,37800.00
3781,19452,37810.00
3782,19392,37820.00
3783,19356,37830.00
3784,19356,37840.00
3785,19400,37850.00
3786,19456,37860.00
3787,19500,37870.00
3788,19524,37880.00
3789,19544,37890.00
3790,19560,37900.00
3791,19584,37910.00
3792,19616,37920.00
3793,19628,37930.00
3794,19652,37940.00
3795,19668,37950.00
3796,19680,37960.00
3797,19692,37970.00
3798,19720,37980.00
3799,19724,37990.00
3800,19660,38000.00
3801,19548,38010.00
3802,19452,38020.00
3803,19400,38030.00
3804,19380,38040.00
3805,19380,38050.00
3806,19412,38060.00
3807,19464,38070.00
3808,19496,38080.00
3809,19524,38090.00
3810,19548,38100.00
3811,19576,38110.00
3812,19600,38120.00
3813,19612,38130.00
3814,19632,38140.00
3815,19656,38150.00
3816,19680,38160.00
3817,19692,38170.00
3818,19696,38180.00
3819,19688,38190.00
3820,19672,38200.00
3821,19596,38210.00
3822,19488,38220.00
3823,19404,38230.00
3824,19352,38240.00
3825,19328,38250.00
3826,19348,38260.00
3827,19372,38270.00
3828,19388,38280.00
3829,19404,38290.00
3830,19420,38300.00
3831,19432,38310.00
3832,19444,38320.00
3833,19460,38330.00
3834,19464,38340.00
3835,19472,38350.00
3836,19484,38360.00
3837,19492,38370.00
3838,19512,38380.00
3839,19516,38390.00
3840,19528,38400.00
3841,19520,38410.00
3842,19440,38420.00
3843,19340,38430.00
3844,19272,38440.00
3845,19236,38450.00
3846,19228,38460.00
3847,19228,38470.00
3848,19260,38480.00
3849,19292,38490.00
3850,19320,38500.00
3851,19332,38510.00
3852,19348,38520.00
3853,19368,38530.00
3854,19380,38540.00
3855,19392,38550.00
3856,19404,38560.00
3857,19416,38570.00
3858,19420,38580.00
3859,19424,38590.00
3860,19440,38600.00
3861,19448,38610.00
3862,19440,38620.00
3863,19368,38630.00
3864,19284,38640.00
3865,19240,38650.00
3866,19228,38660.00
3867,19232,38670.00
3868,19256,38680.00
3869,19276,38690.00
3870,19296,38700.00
3871,19328,38710.00
3872,19360,38720.00
3873,19388,38730.00
3874,19396,38740.00
3875,19396,38750.00
3876,19396,38760.00
3877,19384,38770.00
3878,19388,38780.00
3879,19392,38790.00
3880,19408,38800.00
3881,19408,38810.00
3882,19404,38820.00
3883,19384,38830.00
3884,19316,38840.00
3885,19236,38850.00
3886,19196,38860.00
3887,19192,38870.00
3888,19216,38880.00
3889,19252,38890.00
3890,19280,38900.00
3891,19292,38910.00
3892,19292,38920.00
3893,19300,38930.00
3894,19308,38940.00
3895,19312,38950.00
3896,19316,38960.00
3897,19320,38970.00
3898,19328,38980.00
3899,19344,38990.00
3900,19372,39000.00
3901,19376,39010.00
3902,19372,39020.00
3903,19380,39030.00
3904,19344,39040.00
3905,19272,39050.00
3906,19220,39060.00
3907,19188,39070.00
3908,19180,39080.00
3909,19192,39090.00
3910,19224,39100.00
3911,19228,39110.00
3912,19236,39120.00
3913,19264,39130.00
3914,19288,39140.00
3915,19300,39150.00
3916,19308,39160.00
3917,19324,39170.00
3918,19336,39180.00
3919,19356,39190.00
3920,19368,39200.00
3921,19376,39210.00
3922,19392,39220.00
3923,19404,39230.00
3924,19400,39240.00
3925,19344,39250.00
3926,19272,39260.00
3927,19224,39270.00
3928,19188,39280.00
3929,19180,39290.00
3930,19192,39300.00
3931,19208,39310.00
3932,19224,39320.00
3933,19240,39330.00
3934,19256,39340.00
3935,19264,39350.00
3936,19288,39360.00
3937,19308,39370.00
3938,19332,39380.00
3939,19344,39390.00
3940,19360,39400.00
3941,19376,39410.00
3942,19384,39420.00
3943,19376,39430.00
3944,19380,39440.00
3945,19340,39450.00
3946,19248,39460.00
3947,19184,39470.00
3948,19144,39480.00
3949,19140,39490.00
3950,19156,39500.00
3951,19184,39510.00
3952,19196,39520.00
3953,19200,39530.00
3954,19204,39540.00
3955,19216,39550.00
3956,19228,39560.00
3957,19240,39570.00
3958,19268,39580.00
3959,19300,39590.00
3960,19332,39600.00
3961,19352,39610.00
3962,19360,39620.00
3963,19360,39630.00
3964,19372,39640.00
3965,19332,39650.00
3966,19240,39660.00
3967,19180,39670.00
3968,19152,39680.00
3969,19156,39690.00
3970,19180,39700.00
3971,19204,39710.00
3972,19220,39720.00
3973,19236,39730.00
3974,19260,39740.00
3975,19288,39750.00
3976,19316,39760.00
3977,19344,39770.00
3978,19372,39780.00
3979,19392,39790.00
3980,19420,39800.00
3981,19460,39810.00
3982,19516,39820.00
3983,19564,39830.00
3984,19600,39840.00
3985,19572,39850.00
3986,19500,39860.00
3987,19440,39870.00
3988,19408,39880.00
3989,19396,39890.00
3990,19412,39900.00
3991,19436,39910.00
3992,19452,39920.00
3993,19476,39930.00
3994,19504,39940.00
3995,19532,39950.00
3996,19560,39960.00
3997,19576,39970.00
3998,19588,39980.00
3999,19596,39990.00
4000,19608,40000.00
4001,19620,40010.00
4002,19624,40020.00
4003,19624,40030.00
4004,19556,40040.00
4005,19448,40050.00
4006,19372,40060.00
4007,19328,40070.00
4008,19312,40080.00
4009,19332,40090.00
4010,19372,40100.00
4011,19392,40110.00
4012,19404,40120.00
4013,19424,40130.00
4014,19448,40140.00
4015,19460,40150.00
4016,19472,40160.00
4017,19472,40170.00
4018,19484,40180.00
4019,19508,40190.00
4020,19516,40200.00
4021,19520,40210.00
4022,19508,40220.00
4023,19436,40230.00
4024,19328,40240.00
4025,19252,40250.00
4026,19204,40260.00
4027,19176,40270.00
4028,19192,40280.00
4029,19232,40290.00
4030,19264,40300.00
4031,19284,40310.00
4032,19304,40320.00
4033,19324,40330.00
4034,19344,40340.00
4035,19368,40350.00
4036,19392,40360.00
4037,19408,40370.00
4038,19416,40380.00
4039,19436,40390.00
4040,19456,40400.00
4041,19468,40410.00
4042,19444,40420.00
4043,19344,40430.00
4044,19236,40440.00
4045,19180,40450.00
4046,19148,40460.00
4047,19152,40470.00
4048,19176,40480.00
4049,19212,40490.00
4050,19256,40500.00
4051,19276,40510.00
4052,19296,40520.00
4053,19316,40530.00
4054,19344,40540.00
4055,19364,40550.00
4056,19380,40560.00
4057,19396,40570.00
4058,19396,40580.00
4059,19408,40590.00
4060,19420,40600.00
4061,19440,40610.00
4062,19404,40620.00
4063,19288,40630.00
4064,19196,40640.00
4065,19144,40650.00
4066,19132,40660.00
4067,19132,40670.00
4068,19172,40680.00
4069,19212,40690.00
4070,19248,40700.00
4071,19284,40710.00
4072,19312,40720.00
4073,19340,40730.00
4074,19368,40740.00
4075,19388,40750.00
4076,19404,40760.00
4077,19416,40770.00
4078,19436,40780.00
4079,19452,40790.00
4080,19468,40800.00
4081,19476,40810.00
4082,19440,40820.00
4083,19332,40830.00
4084,19224,40840.00
4085,19168,40850.00
4086,19156,40860.00
4087,19160,40870.00
4088,19196,40880.00
4089,19232,40890.00
4090,19260,40900.00
4091,19288,40910.00
4092,19312,40920.00
4093,19324,40930.00
4094,19332,40940.00
4095,19348,40950.00
4096,19364,40960.00
4097,19364,40970.00
4098,19376,40980.00
4099,19396,40990.00
4100,19416,41000.00
4101,19432,41010.00
4102,19424,41020.00
4103,19340,41030.00
4104,19244,41040.00
4105,19180,41050.00
4106,19140,41060.00
4107,19128,41070.00
4108,19152,41080.00
4109,19192,41090.00
4110,19224,41100.00
4111,19244,41110.00
4112,19260,41120.00
4113,19280,41130.00
4114,19300,41140.00
4115,19320,41150.00
4116,19344,41160.00
4117,19376,41170.00
4118,19400,41180.00
4119,19416,41190.00
4120,19440,41200.00
4121,19456,41210.00
4122,19476,41220.00
4123,19436,41230.00
4124,19332,41240.00
4125,19240,41250.00
4126,19180,41260.00
4127,19144,41270.00
4128,19144,41280.00
4129,19168,41290.00
4130,19208,41300.00
4131,19244,41310.00
4132,19264,41320.00
4133,19284,41330.00
4134,19304,41340.00
4135,19324,41350.00
4136,19348,41360.00
4137,19368,41370.00
4138,19392,41380.00
4139,19416,41390.00
4140,19440,41400.00
4141,19456,41410.00
4142,19472,41420.00
4143,19472,41430.00
4144,19420,41440.00
4145,19304,41450.00
4146,19216,41460.00
4147,19164,41470.00
4148,19140,41480.00
4149,19148,41490.00
4150,19180,41500.00
4151,19208,41510.00
4152,19228,41520.00
4153,19248,41530.00
4154,19272,41540.00
4155,19288,41550.00
4156,19304,41560.00
4157,19324,41570.00
4158,19344,41580.00
4159,19356,41590.00
4160,19368,41600.00
4161,19388,41610.00
4162,19404,41620.00
4163,19404,41630.00
4164,19376,41640.00
4165,19276,41650.00
4166,19180,41660.00
4167,19112,41670.00
4168,19072,41680.00
4169,19072,41690.00
4170,19100,41700.00
4171,19132,41710.00
4172,19168,41720.00
4173,19200,41730.00
4174,19236,41740.00
4175,19260,41750.00
4176,19276,41760.00
4177,19288,41770.00
4178,19308,41780.00
4179,19328,41790.00
4180,19332,41800.00
4181,19344,41810.00
4182,19356,41820.00
4183,19360,41830.00
4184,19360,41840.00
4185,19332,41850.00
4186,19248,41860.00
4187,19168,41870.00
4188,19096,41880.00
4189,19068,41890.00
4190,19068,41900.00
4191,19092,41910.00
4192,19128,41920.00
4193,19148,41930.00
4194,19172,41940.00
4195,19188,41950.00
4196,19200,41960.00
4197,19216,41970.00
4198,19236,41980.00
4199,19256,41990.00
4200,19272,42000.00
4201,19284,42010.00
4202,19300,42020.00
4203,19316,42030.00
4204,19324,42040.00
4205,19316,42050.00
4206,19268,42060.00
4207,19184,42070.00
4208,19112,42080.00
4209,19056,42090.00
4210,19032,42100.00
4211,19052,42110.00
4212,19096,42120.00
4213,19124,42130.00
4214,19132,42140.00
4215,19140,42150.00
4216,19160,42160.00
4217,19196,42170.00
4218,19228,42180.00
4219,19240,42190.00
4220,19228,42200.00
4221,19228,42210.00
4222,19224,42220.00
4223,19224,42230.00
4224,19224,42240.00
4225,19220,42250.00
4226,19216,42260.00
4227,19180,42270.00
4228,19108,42280.00
4229,19056,42290.00
4230,19020,42300.00
4231,19028,42310.00
4232,19064,42320.00
4233,19088,42330.00
4234,19108,42340.00
4235,19120,42350.00
4236,19140,42360.00
4237,19156,42370.00
4238,19180,42380.00
4239,19196,42390.00
4240,19216,42400.00
4241,19232,42410.00
4242,19240,42420.00
4243,19248,42430.00
4244,19268,42440.00
4245,19296,42450.00
4246,19320,42460.00
4247,19324,42470.00
4248,19284,42480.00
4249,19208,42490.00
4250,19152,42500.00
4251,19112,42510.00
4252,19104,42520.00
4253,19128,42530.00
4254,19156,42540.00
4255,19168,42550.00
4256,19184,42560.00
4257,19192,42570.00
4258,19204,42580.00
4259,19216,42590.00
4260,19216,42600.00
4261,19224,42610.00
4262,19240,42620.00
4263,19256,42630.00
4264,19280,42640.00
4265,19296,42650.00
4266,19312,42660.00
4267,19336,42670.00
4268,19360,42680.00
4269,19324,42690.00
4270,19244,42700.00
4271,19188,42710.00
4272,19176,42720.00
4273,19192,42730.00
4274,19220,42740.00
4275,19248,42750.00
4276,19272,42760.00
4277,19304,42770.00
4278,19320,42780.00
4279,19332,42790.00
4280,19348,42800.00
4281,19372,42810.00
4282,19388,42820.00
4283,19404,42830.00
4284,19420,42840.00
4285,19432,42850.00
4286,19460,42860.00
4287,19492,42870.00
4288,19516,42880.00
4289,19508,42890.00
4290,19440,42900.00
4291,19368,42910.00
4292,19312,42920.00
4293,19288,42930.00
4294,19304,42940.00
4295,19344,42950.00
4296,19376,42960.00
4297,19396,42970.00
4298,19404,42980.00
4299,19424,42990.00
4300,19448,43000.00
4301,19476,43010.00
4302,19496,43020.00
4303,19520,43030.00
4304,19544,43040.00
4305,19564,43050.00
4306,19580,43060.00
4307,19592,43070.00
4308,19604,43080.00
4309,19600,43090.00
4310,19524,43100.00
4311,19428,43110.00
4312,19352,43120.00
4313,19320,43130.00
4314,19324,43140.00
4315,19360,43150.00
4316,19400,43160.00
4317,19436,43170.00
4318,19456,43180.00
4319,19476,43190.00
4320,19492,43200.00
4321,19520,43210.00
4322,19536,43220.00
4323,19560,43230.00
4324,19572,43240.00
4325,19588,43250.00
4326,19600,43260.00
4327,19604,43270.00
4328,19612,43280.00
4329,19604,43290.00
4330,19524,43300.00
4331,19424,43310.00
4332,19344,43320.00
4333,19296,43330.00
4334,19284,43340.00
4335,19296,43350.00
4336,19328,43360.00
4337,19348,43370.00
4338,19364,43380.00
4339,19388,43390.00
4340,19412,43400.00
4341,19432,43410.00
4342,19464,43420.00
4343,19492,43430.00
4344,19516,43440.00
4345,19544,43450.00
4346,19560,43460.00
4347,19580,43470.00
4348,19600,43480.00
4349,19612,43490.00
4350,19556,43500.00
4351,19448,43510.00
4352,19352,43520.00
4353,19296,43530.00
4354,19272,43540.00
4355,19276,43550.00
4356,19316,43560.00
4357,19356,43570.00
4358,19388,43580.00
4359,19412,43590.00
4360,19444,43600.00
4361,19464,43610.00
4362,19480,43620.00
4363,19496,43630.00
4364,19508,43640.00
4365,19528,43650.00
4366,19552,43660.00
4367,19564,43670.00
4368,19568,43680.00
4369,19572,43690.00
4370,19544,43700.00
4371,19448,43710.00
4372,19356,43720.00
4373,19284,43730.00
4374,19252,43740.00
4375,19252,43750.00
4376,19280,43760.00
4377,19328,43770.00
4378,19356,43780.00
4379,19384,43790.00
4380,19416,43800.00
4381,19444,43810.00
4382,19456,43820.00
4383,19468,43830.00
4384,19492,43840.00
4385,19520,43850.00
4386,19544,43860.00
4387,19560,43870.00
4388,19576,43880.00
4389,19588,43890.00
4390,19592,43900.00
4391,19516,43910.00
4392,19404,43920.00
4393,19316,43930.00
4394,19272,43940.00
4395,19252,43950.00
4396,19272,43960.00
4397,19312,43970.00
4398,19344,43980.00
4399,19376,43990.00
4400,19408,44000.00
4401,19416,44010.00
4402,19436,44020.00
4403,19452,44030.00
4404,19460,44040.00
4405,19476,44050.00
4406,19492,44060.00
4407,19512,44070.00
4408,19524,44080.00
4409,19540,44090.00
4410,19556,44100.00
4411,19512,44110.00
4412,19408,44120.00
4413,19308,44130.00
4414,19240,44140.00
4415,19212,44150.00
4416,19212,44160.00
4417,19244,44170.00
4418,19284,44180.00
4419,19304,44190.00
4420,19328,44200.00
4421,19348,44210.00
4422,19368,44220.00
4423,19392,44230.00
4424,19412,44240.00
4425,19432,44250.00
4426,19448,44260.00
4427,19468,44270.00
4428,19492,44280.00
4429,19496,44290.00
4430,19500,44300.00
4431,19492,44310.00
4432,19412,44320.00
4433,19292,44330.00
4434,19200,44340.00
4435,19144,44350.00
4436,19128,44360.00
4437,19132,44370.00
4438,19160,44380.00
4439,19188,44390.00
4440,19208,44400.00
4441,19232,44410.00
4442,19248,44420.00
4443,19276,44430.00
4444,19304,44440.00
4445,19296,44450.00
4446,19296,44460.00
4447,19288,44470.00
4448,19288,44480.00
4449,19284,44490.00
4450,19292,44500.00
4451,19292,44510.00
4452,19256,44520.00
4453,19144,44530.00
4454,19048,44540.00
4455,18980,44550.00
4456,18948,44560.00
4457,18936,44570.00
4458,18956,44580.00
4459,18988,44590.00
4460,19004,44600.00
4461,19020,44610.00
4462,19024,44620.00
4463,19048,44630.00
4464,19068,44640.00
4465,19088,44650.00
4466,19104,44660.00
4467,19120,44670.00
4468,19136,44680.00
4469,19152,44690.00
4470,19148,44700.00
4471,19144,44710.00
4472,19180,44720.00
4473,19152,44730.00
4474,19064,44740.00
4475,18980,44750.00
4476,18924,44760.00
4477,18892,44770.00
4478,18900,44780.00
4479,18932,44790.00
4480,18964,44800.00
4481,18988,44810.00
4482,19008,44820.00
4483,19028,44830.00
4484,19048,44840.00
4485,19060,44850.00
4486,19076,44860.00
4487,19100,44870.00
4488,19116,44880.00
4489,19128,44890.00
4490,19140,44900.00
4491,19148,44910.00
4492,19156,44920.00
4493,19164,44930.00
4494,19160,44940.00
4495,19108,44950.00
4496,19020,44960.00
4497,18948,44970.00
4498,18900,44980.00
4499,18892,44990.00
4500,18908,45000.00
4501,18936,45010.00
4502,18964,45020.00
4503,18980,45030.00
4504,19000,45040.00
4505,19020,45050.00
4506,19032,45060.00
4507,19040,45070.00
4508,19056,45080.00
4509,19064,45090.00
4510,19076,45100.00
4511,19084,45110.00
4512,19080,45120.00
4513,19080,45130.00
4514,19100,45140.00
4515,19088,45150.00
4516,19012,45160.00
4517,18932,45170.00
4518,18896,45180.00
4519,18884,45190.00
4520,18904,45200.00
4521,18932,45210.00
4522,18944,45220.00
4523,18960,45230.00
4524,18980,45240.00
4525,18996,45250.00
4526,19004,45260.00
4527,18988,45270.00
4528,18976,45280.00
4529,18984,45290.00
4530,19004,45300.00
4531,19032,45310.00
4532,19060,45320.00
4533,19080,45330.00
4534,19096,45340.00
4535,19096,45350.00
4536,19108,45360.00
4537,19080,45370.00
4538,19008,45380.00
4539,18952,45390.00
4540,18928,45400.00
4541,18932,45410.00
4542,18960,45420.00
4543,18992,45430.00
4544,19016,45440.00
4545,19044,45450.00
4546,19048,45460.00
4547,19048,45470.00
4548,19060,45480.00
4549,19076,45490.00
4550,19088,45500.00
4551,19092,45510.00
4552,19100,45520.00
4553,19120,45530.00
4554,19148,45540.00
4555,19176,45550.00
4556,19184,45560.00
4557,19140,45570.00
4558,19072,45580.00
4559,19024,45590.00
4560,19008,45600.00
4561,19016,45610.00
4562,19044,45620.00
4563,19084,45630.00
4564,19116,45640.00
4565,19148,45650.00
4566,19172,45660.00
4567,19184,45670.00
4568,19200,45680.00
4569,19228,45690.00
4570,19252,45700.00
4571,19272,45710.00
4572,19284,45720.00
4573,19308,45730.00
4574,19320,45740.00
4575,19352,45750.00
4576,19384,45760.00
4577,19356,45770.00
4578,19260,45780.00
4579,19172,45790.00
4580,19132,45800.00
4581,19152,45810.00
4582,19164,45820.00
4583,19164,45830.00
4584,19176,45840.00
4585,19196,45850.00
4586,19240,45860.00
4587,19272,45870.00
4588,19280,45880.00
4589,19288,45890.00
4590,19304,45900.00
4591,19320,45910.00
4592,19336,45920.00
4593,19364,45930.00
4594,19388,45940.00
4595,19396,45950.00
4596,19392,45960.00
4597,19336,45970.00
4598,19240,45980.00
4599,19164,45990.00
4600,19104,46000.00
4601,19084,46010.00
4602,19084,46020.00
4603,19108,46030.00
4604,19136,46040.00
4605,19164,46050.00
4606,19176,46060.00
4607,19196,46070.00
4608,19224,46080.00
4609,19248,46090.00
4610,19272,46100.00
4611,19300,46110.00
4612,19336,46120.00
4613,19364,46130.00
4614,19392,46140.00
4615,19404,46150.00
4616,19416,46160.00
4617,19384,46170.00
4618,19292,46180.00
4619,19196,46190.00
4620,19128,46200.00
4621,19100,46210.00
4622,19104,46220.00
4623,19144,46230.00
4624,19184,46240.00
4625,19212,46250.00
4626,19228,46260.00
4627,19256,46270.00
4628,19280,46280.00
4629,19300,46290.00
4630,19324,46300.00
4631,19348,46310.00
4632,19372,46320.00
4633,19392,46330.00
4634,19408,46340.00
4635,19424,46350.00
4636,19440,46360.00
4637,19428,46370.00
4638,19336,46380.00
4639,19232,46390.00
4640,19164,46400.00
4641,19132,46410.00
4642,19124,46420.00
4643,19148,46430.00
4644,19196,46440.00
4645,19236,46450.00
4646,19264,46460.00
4647,19284,46470.00
4648,19300,46480.00
4649,19328,46490.00
4650,19356,46500.00
4651,19372,46510.00
4652,19384,46520.00
4653,19400,46530.00
4654,19412,46540.00
4655,19424,46550.00
4656,19428,46560.00
4657,19404,46570.00
4658,19300,46580.00
4659,19196,46590.00
4660,19124,46600.00
4661,19084,46610.00
4662,19076,46620.00
4663,19096,46630.00
4664,19132,46640.00
4665,19160,46650.00
4666,19196,46660.00
4667,19216,46670.00
4668,19232,46680.00
4669,19256,46690.00
4670,19276,46700.00
4671,19280,46710.00
4672,19296,46720.00
4673,19316,46730.00
4674,19340,46740.00
4675,19344,46750.00
4676,19348,46760.00
4677,19336,46770.00
4678,19252,46780.00
4679,19148,46790.00
4680,19072,46800.00
4681,19028,46810.00
4682,19004,46820.00
4683,19020,46830.00
4684,19060,46840.00
4685,19096,46850.00
4686,19116,46860.00
4687,19140,46870.00
4688,19160,46880.00
4689,19180,46890.00
4690,19208,46900.00
4691,19232,46910.00
4692,19252,46920.00
4693,19272,46930.00
4694,19288,46940.00
4695,19296,46950.00
4696,19308,46960.00
4697,19312,46970.00
4698,19260,46980.00
4699,19156,46990.00
4700,19072,47000.00
4701,19020,47010.00
4702,19000,47020.00
4703,19008,47030.00
4704,19044,47040.00
4705,19084,47050.00
4706,19120,47060.00
4707,19140,47070.00
4708,19160,47080.00
4709,19184,47090.00
4710,19208,47100.00
4711,19228,47110.00
4712,19244,47120.00
4713,19260,47130.00
4714,19288,47140.00
4715,19312,47150.00
4716,19324,47160.00
4717,19332,47170.00
4718,19324,47180.00
4719,19240,47190.00
4720,19140,47200.00
4721,19084,47210.00
4722,19060,47220.00
4723,19060,47230.00
4724,19088,47240.00
4725,19140,47250.00
4726,19180,47260.00
4727,19212,47270.00
4728,19236,47280.00
4729,19256,47290.00
4730,19268,47300.00
4731,19284,47310.00
4732,19304,47320.00
4733,19312,47330.00
4734,19308,47340.00
4735,19316,47350.00
4736,19332,47360.00
4737,19344,47370.00
4738,19352,47380.00
4739,19296,47390.00
4740,19196,47400.00
4741,19128,47410.00
4742,19088,47420.00
4743,19072,47430.00
4744,19084,47440.00
4745,19124,47450.00
4746,19152,47460.00
4747,19164,47470.00
4748,19188,47480.00
4749,19212,47490.00
4750,19228,47500.00
4751,19248,47510.00
4752,19268,47520.00
4753,19280,47530.00
4754,19284,47540.00
4755,19292,47550.00
4756,19304,47560.00
4757,19316,47570.00
4758,19336,47580.00
4759,19320,47590.00
4760,19232,47600.00
4761,19128,47610.00
4762,19056,47620.00
4763,19020,47630.00
4764,19020,47640.00
4765,19040,47650.00
4766,19080,47660.00
4767,19112,47670.00
4768,19120,47680.00
4769,19144,47690.00
4770,19168,47700.00
4771,19184,47710.00
4772,19188,47720.00
4773,19208,47730.00
4774,19232,47740.00
4775,19244,47750.00
4776,19260,47760.00
4777,19280,47770.00
4778,19304,47780.00
4779,19316,47790.00
4780,19276,47800.00
4781,19176,47810.00
4782,19072,47820.00
4783,19016,47830.00
4784,18992,47840.00
4785,18996,47850.00
4786,19024,47860.00
4787,19060,47870.00
4788,19092,47880.00
4789,19116,47890.00
4790,19132,47900.00
4791,19152,47910.00
4792,19180,47920.00
4793,19200,47930.00
4794,19224,47940.00
4795,19240,47950.00
4796,19256,47960.00
4797,19272,47970.00
4798,19300,47980.00
4799,19312,47990.00
4800,19320,48000.00
4801,19268,48010.00
4802,19168,48020.00
4803,19080,48030.00
4804,19032,48040.00
4805,19012,48050.00
4806,19032,48060.00
4807,19080,48070.00
4808,19120,48080.00
4809,19152,48090.00
4810,19176,48100.00
4811,19204,48110.00
4812,19228,48120.00
4813,19252,48130.00
4814,19272,48140.00
4815,19300,48150.00
4816,19320,48160.00
4817,19336,48170.00
4818,19352,48180.00
4819,19368,48190.00
4820,19380,48200.00
4821,19368,48210.00
4822,19280,48220.00
4823,19172,48230.00
4824,19096,48240.00
4825,19048,48250.00
4826,19036,48260.00
4827,19056,48270.00
4828,19104,48280.00
4829,19136,48290.00
4830,19160,48300.00
4831,19184,48310.00
4832,19208,48320.00
4833,19228,48330.00
4834,19248,48340.00
4835,19268,48350.00
4836,19292,48360.00
4837,19308,48370.00
4838,19320,48380.00
4839,19332,48390.00
4840,19344,48400.00
4841,19356,48410.00
4842,19356,48420.00
4843,19292,48430.00
4844,19192,48440.00
4845,19116,48450.00
4846,19080,48460.00
4847,19076,48470.00
4848,19100,48480.00
4849,19140,48490.00
4850,19176,48500.00
4851,19208,48510.00
4852,19232,48520.00
4853,19248,48530.00
4854,19272,48540.00
4855,19292,48550.00
4856,19316,48560.00
4857,19336,48570.00
4858,19352,48580.00
4859,19368,48590.00
4860,19388,48600.00
4861,19404,48610.00
4862,19416,48620.00
4863,19412,48630.00
4864,19332,48640.00
4865,19220,48650.00
4866,19148,48660.00
4867,19112,48670.00
4868,19108,48680.00
4869,19136,48690.00
4870,19176,48700.00
4871,19216,48710.00
4872,19248,48720.00
4873,19272,48730.00
4874,19296,48740.00
4875,19312,48750.00
4876,19324,48760.00
4877,19332,48770.00
4878,19356,48780.00
4879,19376,48790.00
4880,19384,48800.00
4881,19400,48810.00
4882,19420,48820.00
4883,19440,48830.00
4884,19436,48840.00
4885,19352,48850.00
4886,19248,48860.00
4887,19176,48870.00
4888,19144,48880.00
4889,19136,48890.00
4890,19156,48900.00
4891,19196,48910.00
4892,19228,48920.00
4893,19260,48930.00
4894,19284,48940.00
4895,19300,48950.00
4896,19320,48960.00
4897,19336,48970.00
4898,19364,48980.00
4899,19384,48990.00
4900,19396,49000.00
4901,19420,49010.00
4902,19436,49020.00
4903,19456,49030.00
4904,19476,49040.00
4905,19496,49050.00
4906,19504,49060.00
4907,19496,49070.00
4908,19428,49080.00
4909,19320,49090.00
4910,19220,49100.00
4911,19144,49110.00
4912,19120,49120.00
4913,19104,49130.00
4914,19112,49140.00
4915,19124,49150.00
4916,19136,49160.00
4917,19144,49170.00
4918,19148,49180.00
4919,19168,49190.00
4920,19196,49200.00
4921,19220,49210.00
4922,19236,49220.00
4923,19252,49230.00
4924,19264,49240.00
4925,19272,49250.00
4926,19284,49260.00
4927,19300,49270.00
4928,19268,49280.00
4929,19172,49290.00
4930,19080,49300.00
4931,19040,49310.00
4932,19028,49320.00
4933,19048,49330.00
4934,19080,49340.00
4935,19120,49350.00
4936,19172,49360.00
4937,19208,49370.00
4938,19240,49380.00
4939,19256,49390.00
4940,19288,49400.00
4941,19308,49410.00
4942,19344,49420.00
4943,19384,49430.00
4944,19408,49440.00
4945,19432,49450.00
4946,19444,49460.00
4947,19464,49470.00
4948,19488,49480.00
4949,19440,49490.00
4950,19340,49500.00
4951,19260,49510.00
4952,19220,49520.00
4953,19216,49530.00
4954,19248,49540.00
4955,19304,49550.00
4956,19356,49560.00
4957,19396,49570.00
4958,19424,49580.00
4959,19440,49590.00
4960,19464,49600.00
4961,19476,49610.00
4962,19496,49620.00
4963,19512,49630.00
4964,19524,49640.00
4965,19552,49650.00
4966,19568,49660.00
4967,19584,49670.00
4968,19604,49680.00
4969,19612,49690.00
4970,19548,49700.00
4971,19440,49710.00
4972,19348,49720.00
4973,19288,49730.00
4974,19280,49740.00
4975,19304,49750.00
4976,19344,49760.00
4977,19384,49770.00
4978,19408,49780.00
4979,19432,49790.00
4980,19456,49800.00
4981,19484,49810.00
4982,19512,49820.00
4983,19536,49830.00
4984,19552,49840.00
4985,19568,49850.00
4986,19588,49860.00
4987,19608,49870.00
4988,19624,49880.00
4989,19640,49890.00
4990,19644,49900.00
4991,19588,49910.00
4992,19488,49920.00
4993,19392,49930.00
4994,19332,49940.00
4995,19308,49950.00
4996,19320,49960.00
4997,19352,49970.00
4998,19388,49980.00
4999,19416,49990.00
5000,19440,50000.00
5001,19460,50010.00
5002,19476,50020.00
5003,19492,50030.00
5004,19512,50040.00
5005,19540,50050.00
5006,19564,50060.00
5007,19584,50070.00
5008,19592,50080.00
5009,19612,50090.00
5010,19648,50100.00
5011,19664,50110.00
5012,19612,50120.00
5013,19508,50130.00
5014,19420,50140.00
5015,19348,50150.00
5016,19312,50160.00
5017,19316,50170.00
5018,19356,50180.00
5019,19396,50190.00
5020,19424,50200.00
5021,19432,50210.00
5022,19436,50220.00
5023,19448,50230.00
5024,19472,50240.00
5025,19496,50250.00
5026,19512,50260.00
5027,19532,50270.00
5028,19544,50280.00
5029,19556,50290.00
5030,19568,50300.00
5031,19612,50310.00
5032,19628,50320.00
5033,19568,50330.00
5034,19460,50340.00
5035,19384,50350.00
5036,19328,50360.00
5037,19312,50370.00
5038,19328,50380.00
5039,19360,50390.00
5040,19392,50400.00
5041,19424,50410.00
5042,19452,50420.00
5043,19480,50430.00
5044,19520,50440.00
5045,19548,50450.00
5046,19560,50460.00
5047,19568,50470.00
5048,19580,50480.00
5049,19604,50490.00
5050,19616,50500.00
5051,19640,50510.00
5052,19652,50520.00
5053,19648,50530.00
5054,19576,50540.00
5055,19464,50550.00
5056,19372,50560.00
5057,19316,50570.00
5058,19288,50580.00
5059,19300,50590.00
5060,19332,50600.00
5061,19372,50610.00
5062,19400,50620.00
5063,19428,50630.00
5064,19452,50640.00
5065,19488,50650.00
5066,19540,50660.00
5067,19584,50670.00
5068,19616,50680.00
5069,19644,50690.00
5070,19664,50700.00
5071,19676,50710.00
5072,19692,50720.00
5073,19692,50730.00
5074,19688,50740.00
5075,19616,50750.00
5076,19496,50760.00
5077,19400,50770.00
5078,19344,50780.00
5079,19328,50790.00
5080,19344,50800.00
5081,19376,50810.00
5082,19416,50820.00
5083,19448,50830.00
5084,19472,50840.00
5085,19492,50850.00
5086,19516,50860.00
5087,19540,50870.00
5088,19556,50880.00
5089,19580,50890.00
5090,19596,50900.00
5091,19612,50910.00
5092,19640,50920.00
5093,19648,50930.00
5094,19652,50940.00
5095,19660,50950.00
5096,19676,50960.00
5097,19680,50970.00
5098,19660,50980.00
5099,19576,50990.00
5100,19464,51000.00
5101,19388,51010.00
5102,19336,51020.00
5103,19328,51030.00
5104,19364,51040.00
5105,19416,51050.00
5106,19448,51060.00
5107,19476,51070.00
5108,19500,51080.00
5109,19524,51090.00
5110,19548,51100.00
5111,19568,51110.00
5112,19580,51120.00
5113,19584,51130.00
5114,19592,51140.00
5115,19588,51150.00
5116,19576,51160.00
5117,19576,51170.00
5118,19576,51180.00
5119,19576,51190.00
5120,19520,51200.00
5121,19424,51210.00
5122,19356,51220.00
5123,19316,51230.00
5124,19304,51240.00
5125,19332,51250.00
5126,19380,51260.00
5127,19412,51270.00
5128,19432,51280.00
5129,19436,51290.00
5130,19440,51300.00
5131,19460,51310.00
5132,19484,51320.00
5133,19508,51330.00
5134,19532,51340.00
5135,19540,51350.00
5136,19548,51360.00
5137,19564,51370.00
5138,19580,51380.00
5139,19604,51390.00
5140,19612,51400.00
5141,19548,51410.00
5142,19440,51420.00
5143,19360,51430.00
5144,19316,51440.00
5145,19296,51450.00
5146,19312,51460.00
5147,19340,51470.00
5148,19372,51480.00
5149,19404,51490.00
5150,19428,51500.00
5151,19448,51510.00
5152,19456,51520.00
5153,19488,51530.00
5154,19528,51540.00
5155,19552,51550.00
5156,19564,51560.00
5157,19568,51570.00
5158,19572,51580.00
5159,19576,51590.00
5160,19572,51600.00
5161,19516,51610.00
5162,19428,51620.00
5163,19344,51630.00
5164,19284,51640.00
5165,19256,51650.00
5166,19268,51660.00
5167,19304,51670.00
5168,19336,51680.00
5169,19372,51690.00
5170,19388,51700.00
5171,19404,51710.00
5172,19420,51720.00
5173,19436,51730.00
5174,19444,51740.00
5175,19444,51750.00
5176,19452,51760.00
5177,19464,51770.00
5178,19476,51780.00
5179,19480,51790.00
5180,19484,51800.00
5181,19440,51810.00
5182,19352,51820.00
5183,19280,51830.00
5184,19244,51840.00
5185,19236,51850.00
5186,19248,51860.00
5187,19268,51870.00
5188,19284,51880.00
5189,19308,51890.00
5190,19328,51900.00
5191,19348,51910.00
5192,19372,51920.00
5193,19396,51930.00
5194,19424,51940.00
5195,19448,51950.00
5196,19472,51960.00
5197,19508,51970.00
5198,19540,51980.00
5199,19564,51990.00
5200,19560,52000.00
5201,19488,52010.00
5202,19376,52020.00
5203,19296,52030.00
5204,19280,52040.00
5205,19292,52050.00
5206,19324,52060.00
5207,19376,52070.00
5208,19416,52080.00
5209,19468,52090.00
5210,19524,52100.00
5211,19568,52110.00
5212,19592,52120.00
5213,19608,52130.00
5214,19608,52140.00
5215,19608,52150.00
5216,19588,52160.00
5217,19584,52170.00
5218,19580,52180.00
5219,19572,52190.00
5220,19524,52200.00
5221,19432,52210.00
5222,19360,52220.00
5223,19308,52230.00
5224,19308,52240.00
5225,19308,52250.00
5226,19328,52260.00
5227,19332,52270.00
5228,19328,52280.00
5229,19328,52290.00
5230,19340,52300.00
5231,19348,52310.00
5232,19360,52320.00
5233,19388,52330.00
5234,19404,52340.00
5235,19424,52350.00
5236,19444,52360.00
5237,19460,52370.00
5238,19456,52380.00
5239,19424,52390.00
5240,19344,52400.00
5241,19276,52410.00
5242,19244,52420.00
5243,19248,52430.00
5244,19288,52440.00
5245,19324,52450.00
5246,19344,52460.00
5247,19360,52470.00
5248,19380,52480.00
5249,19404,52490.00
5250,19420,52500.00
5251,19444,52510.00
5252,19452,52520.00
5253,19460,52530.00
5254,19464,52540.00
5255,19468,52550.00
5256,19488,52560.00
5257,19496,52570.00
5258,19460,52580.00
5259,19368,52590.00
5260,19292,52600.00
5261,19256,52610.00
5262,19256,52620.00
5263,19288,52630.00
5264,19320,52640.00
5265,19332,52650.00
5266,19324,52660.00
5267,19324,52670.00
5268,19340,52680.00
5269,19364,52690.00
5270,19392,52700.00
5271,19412,52710.00
5272,19428,52720.00
5273,19448,52730.00
5274,19464,52740.00
5275,19476,52750.00
5276,19496,52760.00
5277,19472,52770.00
5278,19388,52780.00
5279,19320,52790.00
5280,19276,52800.00
5281,19268,52810.00
5282,19296,52820.00
5283,19328,52830.00
5284,19348,52840.00
5285,19348,52850.00
5286,19352,52860.00
5287,19352,52870.00
5288,19372,52880.00
5289,19404,52890.00
5290,19440,52900.00
5291,19476,52910.00
5292,19496,52920.00
5293,19520,52930.00
5294,19536,52940.00
5295,19552,52950.00
5296,19524,52960.00
5297,19440,52970.00
5298,19356,52980.00
5299,19296,52990.00
5300,19276,53000.00
5301,19288,53010.00
5302,19316,53020.00
5303,19356,53030.00
5304,19380,53040.00
5305,19388,53050.00
5306,19412,53060.00
5307,19440,53070.00
5308,19484,53080.00
5309,19528,53090.00
5310,19560,53100.00
5311,19568,53110.00
5312,19576,53120.00
5313,19584,53130.00
5314,19576,53140.00
5315,19532,53150.00
5316,19436,53160.00
5317,19344,53170.00
5318,19288,53180.00
5319,19260,53190.00
5320,19276,53200.00
5321,19328,53210.00
5322,19380,53220.00
5323,19420,53230.00
5324,19456,53240.00
5325,19492,53250.00
5326,19528,53260.00
5327,19544,53270.00
5328,19552,53280.00
5329,19560,53290.00
5330,19560,53300.00
5331,19568,53310.00
5332,19584,53320.00
5333,19588,53330.00
5334,19552,53340.00
5335,19468,53350.00
5336,19384,53360.00
5337,19316,53370.00
5338,19288,53380.00
5339,19300,53390.00
5340,19336,53400.00
5341,19380,53410.00
5342,19412,53420.00
5343,19428,53430.00
5344,19444,53440.00
5345,19464,53450.00
5346,19476,53460.00
5347,19484,53470.00
5348,19480,53480.00
5349,19492,53490.00
5350,19504,53500.00
5351,19512,53510.00
5352,19516,53520.00
5353,19508,53530.00
5354,19448,53540.00
5355,19352,53550.00
5356,19288,53560.00
5357,19260,53570.00
5358,19260,53580.00
5359,19292,53590.00
5360,19332,53600.00
5361,19360,53610.00
5362,19396,53620.00
5363,19428,53630.00
5364,19452,53640.00
5365,19480,53650.00
5366,19504,53660.00
5367,19524,53670.00
5368,19540,53680.00
5369,19556,53690.00
5370,19576,53700.00
5371,19596,53710.00
5372,19608,53720.00
5373,19580,53730.00
5374,19496,53740.00
5375,19400,53750.00
5376,19340,53760.00
5377,19316,53770.00
5378,19324,53780.00
5379,19352,53790.00
5380,19388,53800.00
5381,19416,53810.00
5382,19440,53820.00
5383,19460,53830.00
5384,19476,53840.00
5385,19500,53850.00
5386,19520,53860.00
5387,19540,53870.00
5388,19548,53880.00
5389,19556,53890.00
5390,19572,53900.00
5391,19588,53910.00
5392,19580,53920.00
5393,19524,53930.00
5394,19436,53940.00
5395,19372,53950.00
5396,19340,53960.00
5397,19336,53970.00
5398,19360,53980.00
5399,19412,53990.00
5400,19460,54000.00
5401,19500,54010.00
5402,19540,54020.00
5403,19588,54030.00
5404,19624,54040.00
5405,19648,54050.00
5406,19668,54060.00
5407,19680,54070.00
5408,19688,54080.00
5409,19696,54090.00
5410,19708,54100.00
5411,19720,54110.00
5412,19716,54120.00
5413,19660,54130.00
5414,19564,54140.00
5415,19500,54150.00
5416,19480,54160.00
5417,19484,54170.00
5418,19496,54180.00
5419,19528,54190.00
5420,19556,54200.00
5421,19576,54210.00
5422,19600,54220.00
5423,19644,54230.00
5424,19680,54240.00
5425,19712,54250.00
5426,19752,54260.00
5427,19776,54270.00
5428,19804,54280.00
5429,19832,54290.00
5430,19848,54300.00
5431,19860,54310.00
5432,19852,54320.00
5433,19768,54330.00
5434,19680,54340.00
5435,19616,54350.00
5436,19588,54360.00
5437,19584,54370.00
5438,19608,54380.00
5439,19640,54390.00
5440,19664,54400.00
5441,19684,54410.00
5442,19704,54420.00
5443,19724,54430.00
5444,19744,54440.00
5445,19760,54450.00
5446,19784,54460.00
5447,19800,54470.00
5448,19792,54480.00
5449,19796,54490.00
5450,19800,54500.00
5451,19800,54510.00
5452,19768,54520.00
5453,19672,54530.00
5454,19580,54540.00
5455,19528,54550.00
5456,19500,54560.00
5457,19504,54570.00
5458,19524,54580.00
5459,19568,54590.00
5460,19604,54600.00
5461,19612,54610.00
5462,19632,54620.00
5463,19664,54630.00
5464,19704,54640.00
5465,19728,54650.00
5466,19756,54660.00
5467,19768,54670.00
5468,19776,54680.00
5469,19804,54690.00
5470,19828,54700.00
5471,19836,54710.00
5472,19788,54720.00
5473,19684,54730.00
5474,19600,54740.00
5475,19540,54750.00
5476,19524,54760.00
5477,19536,54770.00
5478,19576,54780.00
5479,19600,54790.00
5480,19600,54800.00
5481,19616,54810.00
5482,19636,54820.00
5483,19656,54830.00
5484,19676,54840.00
5485,19700,54850.00
5486,19728,54860.00
5487,19764,54870.00
5488,19796,54880.00
5489,19824,54890.00
5490,19844,54900.00
5491,19860,54910.00
5492,19808,54920.00
5493,19704,54930.00
5494,19600,54940.00
5495,19540,54950.00
5496,19512,54960.00
5497,19516,54970.00
5498,19548,54980.00
5499,19592,54990.00
5500,19628,55000.00
5501,19656,55010.00
5502,19680,55020.00
5503,19704,55030.00
5504,19716,55040.00
5505,19732,55050.00
5506,19744,55060.00
5507,19768,55070.00
5508,19796,55080.00
5509,19816,55090.00
5510,19804,55100.00
5511,19784,55110.00
5512,19720,55120.00
5513,19620,55130.00
5514,19536,55140.00
5515,19488,55150.00
5516,19484,55160.00
5517,19508,55170.00
5518,19548,55180.00
5519,19580,55190.00
5520,19600,55200.00
5521,19600,55210.00
5522,19588,55220.00
5523,19584,55230.00
5524,19600,55240.00
5525,19624,55250.00
5526,19648,55260.00
5527,19664,55270.00
5528,19668,55280.00
5529,19664,55290.00
5530,19672,55300.00
5531,19684,55310.00
5532,19632,55320.00
5533,19540,55330.00
5534,19484,55340.00
5535,19452,55350.00
5536,19444,55360.00
5537,19476,55370.00
5538,19508,55380.00
5539,19532,55390.00
5540,19564,55400.00
5541,19596,55410.00
5542,19616,55420.00
5543,19648,55430.00
5544,19672,55440.00
5545,19708,55450.00
5546,19736,55460.00
5547,19760,55470.00
5548,19788,55480.00
5549,19812,55490.00
5550,19820,55500.00
5551,19772,55510.00
5552,19676,55520.00
5553,19580,55530.00
5554,19520,55540.00
5555,19500,55550.00
5556,19512,55560.00
5557,19532,55570.00
5558,19548,55580.00
5559,19576,55590.00
5560,19608,55600.00
5561,19628,55610.00
5562,19644,55620.00
5563,19668,55630.00
5564,19684,55640.00
5565,19696,55650.00
5566,19716,55660.00
5567,19732,55670.00
5568,19764,55680.00
5569,19784,55690.00
5570,19788,55700.00
5571,19732,55710.00
5572,19652,55720.00
5573,19596,55730.00
5574,19564,55740.00
5575,19552,55750.00
5576,19560,55760.00
5577,19568,55770.00
5578,19572,55780.00
5579,19572,55790.00
5580,19584,55800.00
5581,19608,55810.00
5582,19632,55820.00
5583,19652,55830.00
5584,19656,55840.00
5585,19676,55850.00
5586,19708,55860.00
5587,19732,55870.00
5588,19756,55880.00
5589,19776,55890.00
5590,19728,55900.00
5591,19620,55910.00
5592,19520,55920.00
5593,19468,55930.00
5594,19448,55940.00
5595,19472,55950.00
5596,19528,55960.00
5597,19568,55970.00
5598,19600,55980.00
5599,19636,55990.00
5600,19680,56000.00
5601,19700,56010.00
5602,19716,56020.00
5603,19716,56030.00
5604,19712,56040.00
5605,19724,56050.00
5606,19732,56060.00
5607,19740,56070.00
5608,19740,56080.00
5609,19724,56090.00
5610,19664,56100.00
5611,19584,56110.00
5612,19524,56120.00
5613,19500,56130.00
5614,19516,56140.00
5615,19544,56150.00
5616,19572,56160.00
5617,19592,56170.00
5618,19608,56180.00
5619,19616,56190.00
5620,19628,56200.00
5621,19644,56210.00
5622,19652,56220.00
5623,19652,56230.00
5624,19656,56240.00
5625,19656,56250.00
5626,19656,56260.00
5627,19652,56270.00
5628,19640,56280.00
5629,19580,56290.00
5630,19480,56300.00
5631,19404,56310.00
5632,19360,56320.00
5633,19352,56330.00
5634,19380,56340.00
5635,19412,56350.00
5636,19428,56360.00
5637,19452,56370.00
5638,19476,56380.00
5639,19488,56390.00
5640,19520,56400.00
5641,19552,56410.00
5642,19568,56420.00
5643,19588,56430.00
5644,19600,56440.00
5645,19592,56450.00
5646,19596,56460.00
5647,19604,56470.00
5648,19556,56480.00
5649,19460,56490.00
5650,19392,56500.00
5651,19364,56510.00
5652,19376,56520.00
5653,19408,56530.00
5654,19448,56540.00
5655,19468,56550.00
5656,19472,56560.00
5657,19484,56570.00
5658,19504,56580.00
5659,19516,56590.00
5660,19524,56600.00
5661,19536,56610.00
5662,19544,56620.00
5663,19556,56630.00
5664,19576,56640.00
5665,19600,56650.00
5666,19620,56660.00
5667,19620,56670.00
5668,19552,56680.00
5669,19484,56690.00
5670,19456,56700.00
5671,19452,56710.00
5672,19484,56720.00
5673,19536,56730.00
5674,19572,56740.00
5675,19596,56750.00
5676,19596,56760.00
5677,19600,56770.00
5678,19616,56780.00
5679,19644,56790.00
5680,19672,56800.00
5681,19696,56810.00
5682,19720,56820.00
5683,19744,56830.00
5684,19756,56840.00
5685,19756,56850.00
5686,19688,56860.00
5687,19592,56870.00
5688,19524,56880.00
5689,19488,56890.00
5690,19480,56900.00
5691,19512,56910.00
5692,19540,56920.00
5693,19564,56930.00
5694,19588,56940.00
5695,19600,56950.00
5696,19608,56960.00
5697,19628,56970.00
5698,19640,56980.00
5699,19652,56990.00
5700,19668,57000.00
5701,19672,57010.00
5702,19680,57020.00
5703,19688,57030.00
5704,19632,57040.00
5705,19528,57050.00
5706,19436,57060.00
5707,19384,57070.00
5708,19384,57080.00
5709,19412,57090.00
5710,19452,57100.00
5711,19484,57110.00
5712,19512,57120.00
5713,19536,57130.00
5714,19548,57140.00
5715,19560,57150.00
5716,19588,57160.00
5717,19620,57170.00
5718,19664,57180.00
5719,19688,57190.00
5720,19700,57200.00
5721,19712,57210.00
5722,19680,57220.00
5723,19592,57230.00
5724,19476,57240.00
5725,19400,57250.00
5726,19348,57260.00
5727,19336,57270.00
5728,19356,57280.00
5729,19376,57290.00
5730,19392,57300.00
5731,19404,57310.00
5732,19404,57320.00
5733,19428,57330.00
5734,19456,57340.00
5735,19480,57350.00
5736,19504,57360.00
5737,19536,57370.00
5738,19572,57380.00
5739,19600,57390.00
5740,19572,57400.00
5741,19468,57410.00
5742,19364,57420.00
5743,19296,57430.00
5744,19264,57440.00
5745,19288,57450.00
5746,19344,57460.00
5747,19392,57470.00
5748,19424,57480.00
5749,19460,57490.00
5750,19480,57500.00
5751,19512,57510.00
5752,19540,57520.00
5753,19568,57530.00
5754,19592,57540.00
5755,19620,57550.00
5756,19652,57560.00
5757,19676,57570.00
5758,19668,57580.00
5759,19604,57590.00
5760,19520,57600.00
5761,19452,57610.00
5762,19424,57620.00
5763,19420,57630.00
5764,19436,57640.00
5765,19496,57650.00
5766,19572,57660.00
5767,19628,57670.00
5768,19676,57680.00
5769,19704,57690.00
5770,19740,57700.00
5771,19764,57710.00
5772,19776,57720.00
5773,19784,57730.00
5774,19772,57740.00
5775,19788,57750.00
5776,19804,57760.00
5777,19776,57770.00
5778,19704,57780.00
5779,19636,57790.00
5780,19592,57800.00
5781,19568,57810.00
5782,19584,57820.00
5783,19612,57830.00
5784,19644,57840.00
5785,19692,57850.00
5786,19720,57860.00
5787,19720,57870.00
5788,19732,57880.00
5789,19736,57890.00
5790,19736,57900.00
5791,19752,57910.00
5792,19768,57920.00
5793,19772,57930.00
5794,19772,57940.00
5795,19768,57950.00
5796,19744,57960.00
5797,19688,57970.00
5798,19636,57980.00
5799,19608,57990.00
5800,19600,58000.00
5801,19600,58010.00
5802,19612,58020.00
5803,19644,58030.00
5804,19680,58040.00
5805,19712,58050.00
5806,19736,58060.00
5807,19744,58070.00
5808,19752,58080.00
5809,19780,58090.00
5810,19804,58100.00
5811,19820,58110.00
5812,19824,58120.00
5813,19820,58130.00
5814,19808,58140.00
5815,19760,58150.00
5816,19672,58160.00
5817,19612,58170.00
5818,19600,58180.00
5819,19608,58190.00
5820,19592,58200.00
5821,19604,58210.00
5822,19636,58220.00
5823,19668,58230.00
5824,19700,58240.00
5825,19720,58250.00
5826,19740,58260.00
5827,19752,58270.00
5828,19760,58280.00
5829,19764,58290.00
5830,19776,58300.00
5831,19812,58310.00
5832,19840,58320.00
5833,19844,58330.00
5834,19832,58340.00
5835,19812,58350.00
5836,19796,58360.00
5837,19776,58370.00
5838,19760,58380.00
5839,19776,58390.00
5840,19800,58400.00
5841,19820,58410.00
5842,19832,58420.00
5843,19824,58430.00
5844,19816,58440.00
5845,19824,58450.00
5846,19844,58460.00
5847,19868,58470.00
5848,19892,58480.00
5849,19928,58490.00
5850,19976,58500.00
5851,20024,58510.00
5852,20028,58520.00
5853,19996,58530.00
5854,19952,58540.00
5855,19920,58550.00
5856,19896,58560.00
5857,19896,58570.00
5858,19920,58580.00
5859,19964,58590.00
5860,20004,58600.00
5861,20020,58610.00
5862,20008,58620.00
5863,20028,58630.00
5864,20068,58640.00
5865,20088,58650.00
5866,20104,58660.00
5867,20120,58670.00
5868,20140,58680.00
5869,20156,58690.00
5870,20148,58700.00
5871,20116,58710.00
5872,20056,58720.00
5873,20008,58730.00
5874,19964,58740.00
5875,19912,58750.00
5876,19872,58760.00
5877,19856,58770.00
5878,19828,58780.00
5879,19800,58790.00
5880,19764,58800.00
5881,19732,58810.00
5882,19712,58820.00
5883,19700,58830.00
5884,19708,58840.00
5885,19732,58850.00
5886,19776,58860.00
5887,19800,58870.00
5888,19816,58880.00
5889,19824,58890.00
5890,19796,58900.00
5891,19756,58910.00
5892,19720,58920.00
5893,19700,58930.00
5894,19688,58940.00
5895,19708,58950.00
5896,19744,58960.00
5897,19772,58970.00
5898,19780,58980.00
5899,19796,58990.00
5900,19804,59000.00
5901,19796,59010.00
5902,19800,59020.00
5903,19824,59030.00
5904,19848,59040.00
5905,19868,59050.00
5906,19904,59060.00
5907,19928,59070.00
5908,19936,59080.00
5909,19944,59090.00
5910,19920,59100.00
5911,19864,59110.00
5912,19828,59120.00
5913,19820,59130.00
5914,19836,59140.00
5915,19864,59150.00
5916,19888,59160.00
5917,19912,59170.00
5918,19912,59180.00
5919,19900,59190.00
5920,19896,59200.00
5921,19884,59210.00
5922,19888,59220.00
5923,19872,59230.00
5924,19856,59240.00
5925,19848,59250.00
5926,19856,59260.00
5927,19852,59270.00
5928,19828,59280.00
5929,19780,59290.00
5930,19720,59300.00
5931,19676,59310.00
5932,19648,59320.00
5933,19632,59330.00
5934,19632,59340.00
5935,19620,59350.00
5936,19596,59360.00
5937,19596,59370.00
5938,19608,59380.00
5939,19620,59390.00
5940,19624,59400.00
5941,19620,59410.00
5942,19624,59420.00
5943,19636,59430.00
5944,19648,59440.00
5945,19664,59450.00
5946,19672,59460.00
5947,19656,59470.00
5948,19600,59480.00
5949,19556,59490.00
5950,19508,59500.00
5951,19480,59510.00
5952,19480,59520.00
5953,19476,59530.00
5954,19452,59540.00
5955,19460,59550.00
5956,19488,59560.00
5957,19516,59570.00
5958,19520,59580.00
5959,19528,59590.00
5960,19552,59600.00
5961,19576,59610.00
5962,19572,59620.00
5963,19568,59630.00
5964,19592,59640.00
5965,19612,59650.00
5966,19556,59660.00
5967,19500,59670.00
5968,19472,59680.00
5969,19464,59690.00
5970,19468,59700.00
5971,19488,59710.00
5972,19524,59720.00
5973,19564,59730.00
5974,19596,59740.00
5975,19616,59750.00
5976,19640,59760.00
5977,19664,59770.00
5978,19676,59780.00
5979,19696,59790.00
5980,19716,59800.00
5981,19736,59810.00
5982,19748,59820.00
5983,19780,59830.00
5984,19792,59840.00
5985,19756,59850.00
5986,19712,59860.00
5987,19704,59870.00
5988,19724,59880.00
5989,19744,59890.00
5990,19768,59900.00
5991,19772,59910.00
5992,19756,59920.00
5993,19760,59930.00
5994,19784,59940.00
5995,19812,59950.00
5996,19832,59960.00
5997,19828,59970.00
5998,19848,59980.00
5999,19872,59990.00
